1527709345990765,-2,-2,-1,-2,-2,-2,-4,-1
1527709345990765,5,2,0,-2,-3,-3,0,-3
1527709345992762,0,-1,-1,-1,0,0,-3,0
1527709345992762,8,-2,-4,-1,2,1,-2,4
1527709346013749,-5,-1,1,-5,-8,-3,3,-5
1527709346013749,2,1,1,1,3,2,-1,9
1527709346014749,-1,0,-4,-2,0,-2,-4,0
1527709346014749,1,-3,-2,-1,-3,0,-1,-2
1527709346027741,1,1,1,2,4,2,-2,2
1527709346027741,-1,-1,-2,-2,-1,-1,2,1
1527709346036734,-1,-2,0,-2,-4,1,-1,-4
1527709346036734,2,1,-1,-1,0,0,-1,0
1527709346050727,-4,-2,-3,-1,-2,-1,0,3
1527709346050727,17,3,2,1,-1,0,0,3
1527709346052725,10,3,2,-4,-8,-1,1,-4
1527709346052725,-3,-3,-1,3,2,2,-2,0
1527709346073713,0,-1,1,1,6,1,-2,1
1527709346073713,4,2,3,-2,-5,0,-1,3
1527709346075711,-1,0,-2,2,2,1,2,4
1527709346075711,-4,-2,-1,-4,-1,0,-4,-4
1527709346087703,-1,1,-1,2,-2,-1,0,-2
1527709346087703,-4,1,-1,-1,0,1,-1,-5
1527709346096698,-4,-5,1,-2,2,2,-1,3
1527709346096698,-7,-1,-2,3,3,-1,-2,1
1527709346110694,5,2,0,-3,-5,-4,3,4
1527709346110694,-13,-4,-3,-3,1,1,-4,-1
1527709346112688,-4,0,0,1,0,3,1,0
1527709346112688,4,1,1,2,-4,0,2,-2
1527709346133674,-3,1,-1,1,4,1,-3,-1
1527709346133674,2,1,-1,0,0,-2,2,0
1527709346135675,-2,-4,-1,-3,1,1,-3,1
1527709346135675,-6,0,2,-3,-1,3,0,-2
1527709346147666,-5,-1,-2,-1,1,0,-2,-3
1527709346147666,-6,-3,-3,3,2,-3,-2,1
1527709346156661,-4,1,-1,0,-3,3,6,-5
1527709346156661,2,2,-1,-2,0,-2,-4,-1
1527709346170652,5,-1,1,-1,4,5,-1,3
1527709346170652,-19,-3,-4,0,-4,-6,-1,-5
1527709346172650,10,0,-1,-3,0,0,-3,1
1527709346172650,0,0,2,0,-4,-2,0,1
1527709346193638,-2,-3,-2,-1,-3,-1,0,-3
1527709346193638,0,1,-1,3,2,1,-1,4
1527709346195637,-1,-1,-1,3,1,-5,-2,-4
1527709346195637,-2,-1,-3,2,2,-3,0,-4
1527709346207628,-8,-3,0,-3,-1,1,2,-9
1527709346207628,9,-1,-2,-2,1,-1,-2,6
1527709346216623,-4,-1,-3,1,4,-1,-1,0
1527709346216623,-2,0,0,-3,-6,-2,-3,0
1527709346231614,2,0,0,1,4,-1,-1,3
1527709346231614,6,2,0,-3,-1,-1,5,-1
1527709346232614,-2,0,-2,-1,4,0,-2,5
1527709346232614,-7,0,0,2,4,2,1,-2
1527709346253600,1,1,0,0,0,1,0,3
1527709346253600,-3,-2,-1,0,0,-2,0,1
1527709346255599,30,2,3,-4,-10,-3,2,-4
1527709346255599,1,-1,-1,1,4,-2,1,4
1527709346275590,-1,0,-1,-3,1,-2,-3,2
1527709346275590,-2,0,2,-1,-4,1,-1,-8
1527709346276587,-8,-2,-4,1,0,-5,-1,1
1527709346276587,2,0,-1,-2,-4,0,-1,-3
1527709346290580,3,-2,-2,1,0,-3,1,-1
1527709346290580,9,3,4,-3,1,0,1,-2
1527709346291577,-6,-2,0,2,-2,-5,-4,1
1527709346291577,2,-3,-1,-1,0,-3,-3,2
1527709346312564,-11,1,1,-3,-12,-6,5,-2
1527709346312564,-4,-2,-5,2,3,1,-2,3
1527709346313563,-3,-1,1,1,0,3,1,0
1527709346313563,2,3,0,-3,-3,-1,0,-1
1527709346335549,-12,-2,-4,2,3,0,-3,-6
1527709346335549,3,-1,1,1,-8,-6,0,-2
1527709346336551,-1,-1,0,2,0,0,1,-3
1527709346336551,6,2,2,-1,-3,-4,0,-4
1527709346350542,4,-2,0,-2,-4,1,-4,1
1527709346350542,-6,-2,-2,1,0,0,-5,-2
1527709346351541,-6,2,1,-4,-7,-5,2,-1
1527709346351541,-6,-3,-1,0,3,1,-2,-1
1527709346372526,-2,1,-2,0,2,-1,-3,-3
1527709346372526,1,-2,-1,1,-5,-2,1,-1
1527709346373526,-2,1,0,1,2,3,-1,-2
1527709346373526,-7,-1,-3,2,-2,0,2,6
1527709346395512,6,-1,1,0,-6,0,-2,0
1527709346395512,7,2,4,-1,-2,2,0,1
1527709346396511,-7,-1,-3,-7,-2,-4,-6,1
1527709346396511,1,-1,-2,1,1,1,-2,1
1527709346410503,2,3,4,-2,-4,-6,6,-2
1527709346410503,1,-2,-2,1,2,0,-3,3
1527709346411502,-4,-2,-3,-1,-1,1,-2,-4
1527709346411502,1,0,1,0,-5,-6,3,-2
1527709346432491,2,-2,-2,0,1,2,-3,4
1527709346432491,-6,-3,1,2,-2,4,-1,-3
1527709346433488,9,3,2,1,-2,-7,3,1
1527709346433488,-36,-2,-1,-1,5,0,-3,-8
1527709346455475,-2,3,0,2,0,0,0,3
1527709346455475,17,3,-1,-1,1,-2,1,1
1527709346456475,-1,0,0,-1,-2,0,-1,-4
1527709346456475,4,-2,0,2,-1,0,-1,1
1527709346470465,1,-2,0,1,3,6,0,-1
1527709346470465,-6,2,-1,-4,-3,-1,2,-3
1527709346471465,3,-1,1,1,-1,2,-1,2
1527709346471465,9,-1,-2,-1,-4,-2,0,0
1527709346493452,2,-2,-1,-1,1,-2,0,-1
1527709346493452,1,0,-2,0,0,1,3,0
1527709346493452,-3,-3,-2,0,-2,2,0,-4
1527709346493452,1,-2,0,-1,-1,0,-4,4
1527709346515439,2,-1,0,-1,-1,3,-1,-5
1527709346515439,-4,-2,-2,0,3,3,-2,1
1527709346516437,-2,1,-1,0,5,-1,0,3
1527709346516437,5,1,3,-1,-4,-6,4,-3
1527709346530429,3,0,-4,2,5,-2,-4,-3
1527709346530429,-1,-1,1,-4,0,-6,-2,-2
1527709346531427,-3,-1,0,-3,-5,2,1,0
1527709346531427,4,1,1,2,2,7,-2,2
1527709346552414,-2,-1,0,-3,-6,-3,3,-3
1527709346552414,-3,0,-2,0,-1,0,-2,0
1527709346553413,-4,1,0,-1,0,4,3,2
1527709346553413,0,0,-2,0,1,-1,-3,-1
1527709346575400,-2,-1,1,2,5,1,-4,-1
1527709346575400,1,1,1,-2,-4,-8,3,-2
1527709346576400,-4,-2,-1,2,0,-5,-6,0
1527709346576400,1,-2,-4,0,1,-3,1,-3
1527709346590393,0,0,1,-3,-5,2,0,-2
1527709346590393,-4,0,0,-1,1,3,-1,0
1527709346591392,3,-2,0,0,1,-2,1,0
1527709346591392,-11,-2,2,2,7,3,-4,-6
1527709346613376,14,2,-1,-2,-4,-2,-1,6
1527709346613376,-15,-4,1,-1,-5,-7,2,0
1527709346613376,-4,-1,-3,-1,4,-2,-1,2
1527709346613376,3,2,-2,-4,-10,-2,3,3
1527709346635364,1,1,1,0,5,-3,-2,3
1527709346635364,1,-1,-1,-1,5,1,2,2
1527709346636362,2,3,-2,0,-3,-3,0,-1
1527709346636362,-1,-2,0,-1,7,1,2,0
1527709346650354,-7,-2,-3,1,-2,-5,3,-2
1527709346650354,4,-3,0,1,-2,-1,-3,-4
1527709346651354,-6,-1,1,-1,-1,-3,-2,-2
1527709346651354,15,0,-2,-1,0,-2,-2,-1
1527709346673338,-8,-4,-2,1,-3,-2,-2,4
1527709346673338,3,2,2,-1,-4,3,2,-4
1527709346673338,1,-2,-1,-3,3,-4,-3,1
1527709346673338,2,0,0,1,-2,-1,1,-3
1527709346695326,0,-1,-1,-3,-2,-2,-2,-5
1527709346695326,0,-2,0,2,2,-2,-2,1
1527709346696326,1,-1,-1,1,-4,-1,1,-6
1527709346696326,-2,-4,-2,-2,0,-4,1,3
1527709346710316,2,2,2,0,-2,-4,3,4
1527709346710316,-8,-3,-2,-2,-3,-6,-1,4
1527709346711315,-15,-3,-1,0,-1,1,-1,4
1527709346711315,24,4,2,-5,-10,-7,7,-3
1527709346733303,-4,0,-2,0,-3,1,-1,6
1527709346733303,2,0,-2,-1,-4,5,-1,0
1527709346733303,11,2,2,0,-6,-1,3,-3
1527709346733303,-5,2,0,1,1,3,-1,5
1527709346755289,-3,-3,-1,0,-3,-3,0,-2
1527709346755289,6,0,-2,-3,-3,-1,0,-1
1527709346756287,-6,1,0,3,0,-1,0,-4
1527709346756287,-4,-1,-1,-1,-1,0,-2,2
1527709346770279,-9,2,-3,-1,4,7,-5,0
1527709346770279,-4,1,2,1,-6,-3,2,-4
1527709346771278,2,-3,-3,-2,2,6,0,0
1527709346771278,-3,0,1,1,2,-1,-2,0
1527709346793265,0,-3,3,0,-3,-1,0,-6
1527709346793265,9,2,-4,2,1,2,2,1
1527709346793265,-6,-2,-1,-1,-4,2,-2,-5
1527709346793265,-6,-4,-5,-2,0,0,-3,-3
1527709346815251,2,-1,-1,0,-4,2,1,-2
1527709346815251,2,2,3,-2,4,2,-5,2
1527709346816250,29,-3,-4,0,2,2,2,-2
1527709346816250,2,0,4,-1,-7,0,5,-6
1527709346830242,4,-1,-2,0,6,-1,-3,3
1527709346830242,-6,-1,-1,0,4,1,1,0
1527709346831242,-2,2,5,-2,0,0,5,-2
1527709346831242,2,-4,-3,2,-3,1,-6,-6
1527709346853229,-1,-2,-2,0,-3,-1,2,11
1527709346853229,0,-2,-1,0,3,0,3,7
1527709346853229,-14,1,0,-2,3,1,0,0
1527709346853229,-32,2,1,0,3,0,-1,-3
1527709346883210,21,-16,-5,1,4,-1,-3,-12
1527709346883210,-15,-11,-4,0,5,2,-3,-10
1527709346884209,-47,-5,1,2,6,-1,-5,19
1527709346884209,21,-10,1,-3,-3,-3,-5,-27
1527709346890203,-35,4,-4,-2,9,1,7,32
1527709346890203,-1,-2,-4,-2,-4,-1,-24,-23
1527709346898200,-60,-9,-5,2,-1,-3,-18,-5
1527709346898200,79,-9,10,0,-9,-5,12,-12
1527709346913192,-48,5,-12,-1,6,2,7,36
1527709346913192,-22,25,-7,-6,-14,-3,-43,-18
1527709346914189,95,-11,-12,-3,10,1,10,-16
1527709346914189,7,-8,6,-6,-40,-20,37,48
1527709346935177,109,50,23,-2,-14,-3,6,41
1527709346935177,-41,-36,-9,6,8,-3,-1,9
1527709346936177,69,82,1,-7,-60,-33,9,1
1527709346936177,-4,-84,-20,8,42,29,-19,-43
1527709346950167,40,2,6,-8,-30,-18,18,-6
1527709346950167,45,107,5,-1,34,9,1,-7
1527709346958162,2,5,6,-1,6,7,2,-6
1527709346958162,5,-83,-6,1,9,-2,2,43
1527709346973154,-31,39,-3,2,0,-1,-12,-29
1527709346973154,12,-30,1,-2,-4,-4,4,-10
1527709346974154,-11,27,0,0,16,3,-2,-19
1527709346974154,-16,31,-2,0,5,-5,-10,2
1527709346995146,-12,-45,-2,-1,12,-5,-3,-21
1527709346995146,3,-31,0,-5,-25,-8,32,26
1527709346996138,-9,-21,-9,2,24,12,-21,14
1527709346996138,-57,-49,-2,-1,-13,-10,11,20
1527709347010130,-21,70,-2,5,35,7,-26,-33
1527709347010130,4,5,5,5,3,5,7,5
1527709347018127,-3,-83,5,-2,-18,-10,1,36
1527709347018127,27,-37,-36,-12,-9,-10,-3,-20
1527709347033117,51,72,38,2,6,5,-13,18
1527709347033117,19,82,-11,-7,-24,-16,4,6
1527709347034116,-34,69,-12,-7,-11,-13,-4,6
1527709347034116,-10,127,31,-1,-6,-3,8,-30
1527709347055103,-10,-90,-33,-4,-16,-1,-4,-24
1527709347055103,47,12,47,6,-8,-12,11,57
1527709347056103,-28,-27,12,-1,-4,6,10,30
1527709347056103,12,-71,-16,-2,-18,-6,4,6
1527709347070095,-70,-96,-7,-3,-11,-3,-33,35
1527709347070095,16,65,-1,6,29,16,-2,-52
1527709347078089,-65,-51,18,8,20,5,-22,-47
1527709347078089,-34,-18,0,4,19,5,-9,20
1527709347093078,-20,-120,-13,-4,-22,-2,10,-5
1527709347093078,-2,-128,18,-5,-10,-3,11,-1
1527709347094077,80,-83,-7,6,17,9,12,8
1527709347094077,32,45,0,-1,6,-1,-12,4
1527709347115064,37,88,3,-2,-3,-2,17,-33
1527709347115064,-24,-64,-6,-1,-17,-10,-3,-15
1527709347116064,101,97,38,4,1,24,32,21
1527709347116064,-64,48,14,7,4,1,-5,-16
1527709347139050,-15,-15,3,1,6,5,8,2
1527709347139050,-25,-67,-20,-1,13,5,-19,-4
1527709347139050,33,-78,-2,-6,-21,-8,5,36
1527709347139050,-19,-3,-1,2,3,5,-19,-54
1527709347153041,10,-13,14,5,12,0,12,-9
1527709347153041,-26,-111,-11,-2,-9,-9,22,7
1527709347154040,-15,8,-23,-6,-3,-7,2,-29
1527709347154040,19,-34,5,-4,-9,0,7,8
1527709347175028,14,114,-1,-1,22,7,-11,-6
1527709347175028,6,15,-16,-1,-3,-1,3,-7
1527709347176027,-30,44,12,2,-6,-8,-1,-40
1527709347176027,12,-114,10,-3,-16,2,2,42
1527709347190019,44,104,-12,2,-8,4,5,-4
1527709347190019,-16,-20,12,3,0,6,-3,18
1527709347198013,-38,-31,14,-3,-16,-5,-21,-3
1527709347198013,24,-88,-31,-3,-10,0,16,-8
1527709347213004,-98,-50,6,-2,-1,6,38,53
1527709347213004,0,96,3,2,-13,-6,-6,46
1527709347214004,-30,-95,-37,0,0,-8,-9,12
1527709347214004,0,10,-6,0,8,-2,-2,3
1527709347235992,10,14,30,2,-1,-6,-10,-12
1527709347235992,-21,33,-1,0,15,7,5,-21
1527709347235992,12,68,-11,9,-12,-4,20,-16
1527709347235992,-8,-58,-18,-1,9,-1,-23,3
1527709347249982,61,-95,-16,2,4,-4,-4,34
1527709347249982,-23,-59,-17,-3,-9,-3,27,-8
1527709347257976,11,66,33,6,33,11,-7,-3
1527709347257976,6,59,3,-1,-31,-16,12,4
1527709347272966,-8,17,-16,3,-7,-7,3,-11
1527709347272966,-31,-83,-17,-7,-3,0,-6,-12
1527709347273966,-43,-25,-5,-4,9,5,-66,-16
1527709347273966,8,-30,-20,-6,13,4,-33,1
1527709347294955,52,-75,1,-14,-26,-12,33,17
1527709347294955,19,86,28,4,6,4,-12,-44
1527709347295952,-20,-15,-1,-1,-19,-18,-1,-2
1527709347295952,-14,-1,18,0,-13,-5,1,12
1527709347318939,-10,-46,-18,0,-3,-7,-2,-33
1527709347318939,-14,110,16,1,10,4,-18,-7
1527709347318939,5,-23,-17,-4,5,5,4,-3
1527709347318939,-3,44,-4,-7,6,1,3,-13
1527709347332929,-28,47,13,11,11,8,-8,-13
1527709347332929,0,-28,-2,0,17,8,0,15
1527709347333928,11,-51,-17,-3,1,0,43,-4
1527709347333928,-31,101,19,5,37,14,-15,-31
1527709347355915,-45,-128,-21,-4,-22,-16,-12,-61
1527709347355915,-9,38,-27,10,43,19,-12,6
1527709347355915,17,-57,9,-4,17,9,-5,-7
1527709347355915,36,-58,2,-1,-8,-2,24,-12
1527709347378901,-57,-48,6,-3,-12,-3,-3,-42
1527709347378901,-27,-56,-32,0,17,0,-37,-25
1527709347378901,13,96,21,10,20,10,-3,26
1527709347378901,-21,-58,11,4,-7,1,-12,31
1527709347392891,3,-23,-4,-2,-2,2,-6,-3
1527709347392891,32,-7,-6,-4,-7,-5,-6,10
1527709347393891,4,55,-17,-7,-12,1,22,-7
1527709347393891,5,112,15,-6,-11,2,19,51
1527709347415877,35,91,2,-8,10,3,-8,20
1527709347415877,27,6,-9,-1,-23,-6,1,-17
1527709347415877,58,79,5,-3,-18,-5,16,-26
1527709347415877,8,55,46,2,-7,2,18,28
1527709347438865,1,-112,-13,-1,7,2,3,17
1527709347438865,13,-52,1,-9,-15,-9,20,23
1527709347439867,-3,-70,2,-8,-14,-9,-10,-20
1527709347439867,-17,-101,-36,14,10,-7,1,-8
1527709347452854,-37,19,-31,0,34,14,-23,28
1527709347452854,36,4,7,6,-12,-1,13,9
1527709347453854,13,-85,39,-3,-18,0,49,2
1527709347453854,3,-2,-9,-10,-6,-6,-6,-17
1527709347475840,82,65,7,4,5,2,-15,-5
1527709347475840,-59,-15,-7,-1,-9,-3,20,16
1527709347475840,-24,-1,-17,17,29,9,-21,-24
1527709347475840,-10,16,10,-4,10,3,-14,-13
1527709347498829,30,64,3,-5,-34,-12,26,23
1527709347498829,12,70,40,-6,-31,-12,0,9
1527709347499826,-23,-58,-16,0,-2,-13,-24,16
1527709347499826,-22,-33,10,1,-3,-2,-18,-23
1527709347512818,-22,-4,1,-2,6,4,-9,-13
1527709347512818,10,-57,2,-6,-8,-6,3,69
1527709347513817,53,-17,-15,-10,-24,-10,-5,33
1527709347513817,21,-54,-27,0,10,1,-15,3
1527709347535806,-26,65,40,4,-3,-6,1,-20
1527709347535806,22,-98,-21,-1,1,1,7,-13
1527709347536802,-49,-50,-2,-5,-3,0,-20,-37
1527709347536802,-32,-78,-15,1,27,1,-47,-54
1527709347558790,37,10,2,-6,-5,6,7,-12
1527709347558790,-26,-44,-20,4,0,-8,-18,-6
1527709347559790,-32,-30,-1,-9,-10,-2,-8,15
1527709347559790,-34,70,-12,1,-6,-5,3,-40
1527709347572780,-21,30,10,-2,-3,1,-11,-14
1527709347572780,32,-45,-2,2,6,0,-11,-41
1527709347573779,55,55,14,7,-7,-5,1,12
1527709347573779,78,-9,-39,-1,-34,-7,33,60
1527709347595769,-1,-128,8,4,21,4,0,18
1527709347595769,-7,-7,1,1,15,3,0,2
1527709347596766,19,58,21,-6,1,6,-13,-53
1527709347596766,47,68,-11,2,-5,1,5,-22
1527709347618751,39,49,-2,5,28,15,-41,14
1527709347618751,29,31,29,1,5,4,-6,-14
1527709347619751,-11,-33,-45,3,21,9,-2,7
1527709347619751,-43,36,5,-4,4,2,38,-20
1527709347632745,23,-49,-3,5,15,-3,-28,-11
1527709347632745,-42,38,14,2,6,-2,-9,-18
1527709347633742,21,-54,-11,-4,-6,-2,13,39
1527709347633742,23,-4,7,9,-10,0,14,75
1527709347655730,12,28,-2,8,18,2,19,-43
1527709347655730,-19,30,-16,-8,-19,-6,-7,-9
1527709347655730,-19,-45,-6,0,5,-1,1,-25
1527709347655730,-30,-93,24,5,-1,-7,-12,-38
1527709347678715,-6,0,18,-1,15,5,9,-18
1527709347678715,30,-11,26,20,39,22,-21,-22
1527709347679714,-54,-45,-16,-6,1,-4,-4,6
1527709347679714,-37,-61,1,-11,-7,-7,0,10
1527709347692707,-10,19,20,10,-3,4,16,62
1527709347692707,3,-38,-26,-17,14,20,3,24
1527709347693705,-37,-6,25,8,27,9,-12,-28
1527709347693705,22,-2,4,3,33,15,-11,50
1527709347715693,-20,21,20,-5,-16,0,-10,9
1527709347715693,12,45,3,2,-9,2,9,11
1527709347715693,-14,-69,-15,-5,5,1,-15,11
1527709347715693,29,32,2,1,-4,2,8,-20
1527709347738679,-8,-68,13,-7,-3,7,15,-67
1527709347738679,8,34,32,6,39,17,1,-13
1527709347739678,-6,68,11,4,5,4,11,-5
1527709347739678,13,27,-4,-4,-1,1,-32,-29
1527709347752668,-23,41,-21,-2,-13,-7,5,-21
1527709347752668,13,-102,-44,-4,-23,-17,10,37
1527709347753667,14,75,24,4,18,2,-21,86
1527709347753667,8,7,3,1,5,5,4,-11
1527709347775655,-7,-103,-19,-14,-20,-11,8,50
1527709347775655,8,61,-7,-8,-9,-5,-2,-22
1527709347776653,64,97,33,1,-2,4,3,-25
1527709347776653,-58,-76,-4,0,5,0,-15,-10
1527709347798653,-14,-85,-14,-6,-8,-9,-2,-7
1527709347798653,12,-89,-10,-7,-8,-11,-5,-19
1527709347799640,-40,-24,-15,3,28,7,-19,-3
1527709347799640,16,61,35,-1,0,5,-2,12
1527709347812632,16,9,-24,1,-7,-3,-12,-7
1527709347812632,-10,17,11,5,-6,-2,9,-25
1527709347820627,26,-50,-28,-1,-8,-1,3,-30
1527709347820627,-53,-128,-28,-4,23,0,-15,30
1527709347835617,-33,-40,-11,8,26,11,-4,16
1527709347835617,12,-22,23,1,-11,-4,0,16
1527709347836616,-13,22,13,2,-26,-13,6,2
1527709347836616,63,73,-2,-10,-19,3,31,57
1527709347858602,-18,36,14,9,16,7,-12,7
1527709347858602,-18,-51,-12,-1,12,5,7,-7
1527709347859602,2,3,-3,-5,-4,-2,9,-9
1527709347859602,12,-9,-17,1,-8,-1,11,-23
1527709347872596,20,32,8,-6,-4,-11,5,19
1527709347872596,12,-90,7,-5,-26,-10,10,48
1527709347873595,-13,-128,-5,-1,-6,-4,-4,19
1527709347873595,-12,-67,-25,-4,-12,-7,12,-17
1527709347895583,-19,-58,-15,-20,-21,-4,12,20
1527709347895583,50,2,-3,-10,-5,-1,-1,15
1527709347896610,42,-50,-19,-6,3,8,6,-16
1527709347896610,29,51,28,2,7,-2,-25,-2
1527709347918565,0,-20,-18,6,13,4,1,-27
1527709347918565,-32,-78,-31,1,1,6,15,-3
1527709347919564,-71,57,-2,4,2,0,-22,22
1527709347919564,0,43,17,-10,-7,0,27,-25
1527709347932556,-8,-13,-4,11,-14,-8,3,-7
1527709347932556,-12,-31,-18,3,8,0,-4,-23
1527709347940553,-7,-43,-17,6,4,1,6,24
1527709347940553,17,-22,35,-4,7,8,-14,-5
1527709347955542,-5,-9,25,9,-12,-2,4,-7
1527709347955542,9,-35,1,1,2,-8,-19,-27
1527709347956543,-27,22,21,-12,-15,-1,26,27
1527709347956543,12,-66,-81,5,44,10,-22,-23
1527709347978528,1,-40,18,-3,13,10,-27,-11
1527709347978528,-9,45,11,-5,15,3,-19,-6
1527709347979527,-15,66,42,-11,-16,-10,18,-39
1527709347979527,-37,67,9,2,-11,-4,-12,-28
1527709347992519,4,6,-41,-1,-1,-3,10,-14
1527709347992519,-30,-12,5,0,7,4,-1,-16
1527709348000513,70,40,33,1,12,7,5,21
1527709348000513,18,127,61,-7,-9,2,2,-39
1527709348015505,13,-34,-24,24,-23,-14,3,-6
1527709348015505,-11,23,11,-6,-6,0,9,4
1527709348016506,-12,-101,-26,7,-2,-4,0,-28
1527709348016506,47,22,9,-2,-11,-2,16,5
1527709348038494,-31,40,2,-9,-2,2,9,40
1527709348038494,12,-3,7,8,11,8,-4,11
1527709348039490,4,24,-33,7,-9,-2,-1,-8
1527709348039490,-33,-23,23,-2,-1,-3,7,13
1527709348052482,20,-44,-32,-12,-11,-10,-5,8
1527709348052482,-22,4,-27,0,-8,-7,-17,9
1527709348060478,-11,-27,2,6,7,2,-13,-2
1527709348060478,-5,-38,-22,-1,-6,-5,1,10
1527709348075468,-17,-59,-2,-15,-8,-3,4,-20
1527709348075468,-2,-10,-3,-1,25,16,0,33
1527709348076466,60,86,58,5,13,4,-29,3
1527709348076466,-14,-107,-34,14,-1,2,-7,7
1527709348098454,4,27,20,-7,0,3,-3,-14
1527709348098454,-16,36,-16,-4,-39,-19,38,15
1527709348099452,-23,-109,-8,-14,11,3,-32,5
1527709348099452,8,-14,-4,15,-7,1,4,9
1527709348112444,16,40,11,-4,-1,-1,3,14
1527709348112444,-19,-51,14,4,-15,-7,-11,-24
1527709348120441,46,40,-10,-2,-8,-7,18,-1
1527709348120441,19,0,-3,-6,-12,-7,5,-15
1527709348135431,9,-26,-21,22,16,6,-13,-7
1527709348135431,20,44,34,-5,15,1,-10,-6
1527709348136431,18,-25,-7,17,-17,-8,9,-26
1527709348136431,16,20,-13,-9,-10,-10,-17,43
1527709348158415,70,102,10,-20,-7,0,-3,14
1527709348158415,-40,23,-9,6,-13,-10,0,-13
1527709348159415,-34,-58,-6,-8,8,3,14,11
1527709348159415,-24,-41,-11,12,-1,1,1,-10
1527709348172407,-29,-2,22,-11,-15,-5,6,-11
1527709348172407,-6,-9,-6,2,5,-8,2,26
1527709348180402,-25,-58,-24,-3,-5,0,-4,-11
1527709348180402,-9,-25,11,-14,15,5,11,-4
1527709348195392,-13,5,-9,-1,-1,4,2,-10
1527709348195392,5,7,3,24,22,8,-8,-5
1527709348196392,60,127,64,-11,8,-2,1,5
1527709348196392,12,45,-14,12,-14,-8,-3,-24
1527709348218378,17,-58,10,-7,8,4,5,-5
1527709348218378,13,0,-6,4,-1,2,6,-9
1527709348219378,30,51,31,-5,-31,-6,22,24
1527709348219378,6,50,40,2,33,14,-31,5
1527709348232369,-10,-70,4,0,5,0,-10,3
1527709348232369,-40,-36,-19,-8,-17,-17,-25,-63
1527709348241364,-17,-100,-43,4,-15,-9,-2,-2
1527709348241364,-5,72,39,-3,-4,-2,13,39
1527709348255358,-40,-59,-21,5,-4,0,-3,4
1527709348255358,33,-9,14,-12,-29,-8,14,14
1527709348256357,-66,-56,-38,-14,7,1,8,8
1527709348256357,0,19,-107,-51,12,6,15,33
1527709348278343,-14,85,45,26,21,-2,-24,-8
1527709348278343,8,-24,27,-14,-4,4,2,8
1527709348279343,-9,-53,-1,3,3,0,-3,-20
1527709348279343,-61,-1,-19,-9,-28,-7,35,-5
1527709348301327,17,16,-33,-3,-5,8,23,38
1527709348301327,8,26,15,6,14,15,4,3
1527709348302326,-23,-50,-38,7,11,9,-5,1
1527709348302326,-3,-89,2,16,-5,-5,4,-23
1527709348315319,21,84,11,7,6,2,2,-18
1527709348315319,3,-7,4,55,20,8,-3,-15
1527709348316319,-29,-20,-7,-15,-10,-5,0,-3
1527709348316319,17,25,35,8,14,6,-28,-12
1527709348338308,-14,-8,-20,7,-6,-4,-5,1
1527709348338308,30,-11,-15,-32,28,14,-16,-28
1527709348339304,-26,-79,-38,1,16,2,-7,-61
1527709348339304,-2,-122,-106,11,19,2,-32,-4
1527709348361290,15,-17,16,-13,12,0,-15,-16
1527709348361290,-47,-40,-27,-23,-34,-19,19,1
1527709348362289,10,41,27,22,-6,-2,-7,-9
1527709348362289,-10,-26,26,-2,14,-1,5,-12
1527709348375282,-5,-122,-44,-16,4,0,5,-5
1527709348375282,28,27,25,-1,12,5,25,6
1527709348376281,6,24,-4,7,-19,-4,0,9
1527709348376281,59,12,57,12,12,8,-15,-25
1527709348398271,9,-87,-42,-1,8,-1,-9,-11
1527709348398271,11,-37,0,11,9,8,6,6
1527709348399266,14,6,7,-13,20,2,-11,0
1527709348399266,-37,-32,54,1,-23,-5,2,-14
1527709348421253,51,-2,-49,10,15,10,-23,-1
1527709348421253,-38,64,30,-7,-33,-11,12,30
1527709348422252,10,-35,10,-35,7,-2,-3,21
1527709348422252,-11,-11,-43,16,-24,-9,17,10
1527709348435244,-1,55,39,-4,-23,-1,19,0
1527709348435244,33,-4,-41,-2,-2,0,-11,32
1527709348436244,59,32,9,27,16,10,23,-8
1527709348436244,6,114,78,-33,9,5,1,-26
1527709348458229,-17,-27,-2,4,-12,-8,6,13
1527709348458229,19,13,-8,21,-18,-3,-17,-37
1527709348459229,-120,9,-76,-13,-23,-18,-12,42
1527709348459229,9,-4,26,21,31,7,-26,-16
1527709348481216,3,47,84,17,-29,-10,22,-1
1527709348481216,-1,-20,-91,-20,-8,0,39,11
1527709348482215,-28,-40,-13,-12,-4,0,-6,-16
1527709348482215,-22,-79,-28,71,-7,-17,4,-3
1527709348495207,33,54,51,-4,26,6,15,-13
1527709348495207,-43,-7,-18,-19,-8,-9,-13,-18
1527709348496207,23,39,71,21,-4,2,17,8
1527709348496207,-19,-7,-69,-12,-14,3,13,59
1527709348518192,30,-67,-14,-1,13,9,-10,-4
1527709348518192,7,-53,85,0,23,11,-40,-10
1527709348519192,21,-13,-60,7,14,6,-3,16
1527709348519192,-57,74,27,-22,-3,12,-1,-24
1527709348540179,-17,-65,-1,-9,-22,-5,32,5
1527709348540179,9,28,34,-9,-15,-7,67,21
1527709348548175,14,10,36,36,-17,-1,8,-7
1527709348548175,-12,-56,1,-21,1,-5,6,3
1527709348555169,-12,35,-72,35,17,3,-14,20
1527709348555169,-53,-46,-13,29,-3,-6,-3,5
1527709348556169,26,38,87,-43,7,4,-7,21
1527709348556169,1,47,-78,-27,-22,0,14,-4
1527709348577156,-57,6,50,16,-2,0,-12,-19
1527709348577156,99,10,-27,-16,-17,-12,15,35
1527709348586149,47,67,26,25,-15,-5,3,3
1527709348586149,5,-3,46,6,18,-1,-26,-19
1527709348601140,-19,-22,-14,-36,-7,-5,-5,-6
1527709348601140,-17,59,30,12,3,4,-11,-28
1527709348602139,-41,-67,-59,-4,13,0,-6,-5
1527709348602139,58,18,52,-9,-12,-1,-7,-15
1527709348615131,-8,25,-44,-22,-14,-3,8,6
1527709348615131,-4,-41,14,32,21,1,-26,10
1527709348616130,-25,-37,45,11,-14,-10,20,-29
1527709348616130,60,-11,30,1,1,4,15,17
1527709348638118,49,35,-18,20,23,16,-16,21
1527709348638118,21,25,23,-8,-5,0,-12,-2
1527709348639117,12,-9,-14,-55,11,5,22,-13
1527709348639117,25,-42,1,8,-12,-7,13,-4
1527709348661103,7,50,28,15,19,5,-42,-14
1527709348661103,-10,-12,-26,-20,4,3,12,-12
1527709348662104,19,19,-3,10,24,8,-52,-46
1527709348662104,21,-89,-38,-4,2,-2,-24,27
1527709348675096,63,44,69,-4,14,0,-29,20
1527709348675096,11,-13,27,-14,-6,2,-19,-1
1527709348676095,-7,3,-43,-8,4,0,-12,-13
1527709348676095,66,-6,-4,1,7,5,-4,17
1527709348699079,38,-78,-14,7,6,-1,25,19
1527709348699079,29,12,23,-11,11,6,-3,15
1527709348699079,16,-7,-16,71,0,5,-7,12
1527709348699079,-15,28,36,-16,-4,0,12,-17
1527709348721068,-40,-8,-19,-10,-25,-13,20,-5
1527709348721068,-16,45,-20,4,9,0,-7,-14
1527709348722066,31,-12,48,-6,-24,-8,37,18
1527709348722066,-70,-19,-91,17,29,3,-32,-2
1527709348735059,-53,-4,-2,-14,11,7,16,-27
1527709348735059,-24,-15,28,-6,4,-2,-9,-18
1527709348736057,-33,-15,-29,-11,5,-1,-1,12
1527709348736057,3,23,47,1,-14,1,0,-11
1527709348759042,-31,-3,-3,-7,-17,-9,17,5
1527709348759042,19,5,-61,21,-13,-4,1,-5
1527709348759042,47,54,91,-14,-1,-6,15,30
1527709348759042,-3,32,9,38,-13,-7,4,-14
1527709348781029,17,-6,-21,-10,-16,-8,3,-9
1527709348781029,20,-34,4,1,6,7,-2,24
1527709348782028,-5,0,-31,-20,-6,-2,-4,18
1527709348782028,20,85,5,-10,-10,1,18,45
1527709348795020,37,-7,17,-1,1,2,-9,12
1527709348795020,-20,24,-6,7,-16,-4,2,17
1527709348796019,16,-24,-24,5,12,1,2,-5
1527709348796019,18,-33,10,-16,-2,-5,10,-5
1527709348818005,-16,-26,-18,-2,-4,4,0,45
1527709348818005,32,39,21,-23,10,3,-7,5
1527709348825001,-7,11,-20,2,-14,-2,-13,-11
1527709348825001,-31,-25,90,5,-2,-3,11,3
1527709348840991,-54,-34,-96,-11,9,1,-13,-17
1527709348840991,-1,-23,16,-8,8,-3,-4,-24
1527709348842990,-24,-16,-16,-2,-1,5,15,10
1527709348842990,-6,15,18,-21,-7,-6,-10,-13
1527709348854982,7,8,47,5,-23,-16,0,-21
1527709348854982,5,12,-29,5,-6,0,7,5
1527709348863977,-4,-1,-21,1,2,-5,-13,-20
1527709348863977,12,-45,-25,-2,7,1,-6,8
1527709348877968,2,10,21,-6,-22,-2,14,36
1527709348877968,-31,-15,-23,1,10,2,-2,3
1527709348884964,19,3,10,6,4,-2,-13,15
1527709348884964,-43,-49,-59,-14,-1,-10,-7,-45
1527709348900961,-7,-27,8,26,20,2,-17,-24
1527709348900961,6,-29,23,-8,7,1,-13,-8
1527709348902953,-1,-19,-16,-3,-2,1,-7,-10
1527709348902953,-18,-7,-12,6,10,11,8,-6
1527709348914946,15,-2,-16,-16,18,11,-7,4
1527709348914946,-6,12,1,6,12,-1,-1,2
1527709348923940,-8,10,11,-3,-20,-2,-6,-6
1527709348923940,49,18,6,-11,12,4,-7,18
1527709348938932,24,22,27,1,0,1,-2,0
1527709348938932,12,-19,-29,4,0,-3,8,12
1527709348940931,18,-11,-10,-5,16,4,-11,-1
1527709348940931,-11,-22,1,4,1,0,-4,-11
1527709348960918,-39,-13,9,1,-18,-8,6,-4
1527709348960918,13,15,17,6,0,0,9,34
1527709348962917,-21,-13,6,-3,-16,-3,6,12
1527709348962917,-12,-27,-36,11,-5,-7,4,4
1527709348974908,-14,-26,16,-2,0,-7,7,-19
1527709348974908,-22,-11,-12,2,13,1,-20,-9
1527709348983903,-11,-1,6,2,20,1,0,-4
1527709348983903,-40,-15,3,6,-10,-9,0,3
1527709348998897,-5,21,1,-3,3,0,2,-6
1527709348998897,-1,-32,13,-7,-16,-6,15,-4
1527709348999893,28,0,1,3,15,7,-15,10
1527709348999893,-29,15,-8,4,-2,6,6,-5
1527709349020880,22,-5,1,-3,-2,1,4,-1
1527709349020880,2,-25,-6,0,-1,-1,-5,-29
1527709349022879,12,12,6,-3,-16,-6,13,11
1527709349022879,38,24,-14,-7,1,3,7,27
1527709349034871,46,9,11,-6,-4,-2,2,15
1527709349034871,-1,18,-7,0,-15,-7,0,-1
1527709349043866,14,-12,-26,-8,-1,-6,9,9
1527709349043866,40,32,17,0,-2,1,10,11
1527709349058857,-8,-14,0,-2,-4,0,-3,-14
1527709349058857,-2,9,-4,2,11,3,-9,-6
1527709349059855,36,-8,-5,-1,-3,2,15,0
1527709349059855,-12,-19,-7,4,-7,-3,4,0
1527709349080843,26,13,-1,3,9,-2,11,1
1527709349080843,-11,0,11,-2,-8,-6,-10,19
1527709349082842,-34,10,-4,-1,5,0,-6,-18
1527709349082842,0,-11,3,-4,-1,-5,-1,-12
1527709349094833,-66,-4,-1,4,-2,-3,-10,-6
1527709349094833,-10,-4,4,2,3,2,3,-13
1527709349103828,-13,-11,4,1,3,-2,-6,-20
1527709349103828,0,-6,-26,1,16,5,-16,-5
1527709349118819,-8,-34,-2,1,0,-1,-5,-4
1527709349118819,-1,-21,-5,-2,5,0,-9,-2
1527709349119819,-30,15,15,4,-7,1,-3,8
1527709349119819,-10,-27,-5,-6,6,-1,-3,2
1527709349140805,-9,-15,-12,3,3,0,-10,-5
1527709349140805,11,6,10,6,-6,-2,2,-1
1527709349142804,9,2,-11,3,-2,-3,-9,-4
1527709349142804,-56,-23,9,-1,-4,-3,-6,-21
1527709349154800,4,1,-22,-1,-2,-4,5,12
1527709349154800,9,7,13,6,5,1,-6,5
1527709349163791,-1,-9,-3,-7,-16,-7,3,4
1527709349163791,10,-5,10,3,-7,-8,-10,3
1527709349178782,-11,6,-3,-5,-14,-5,-7,-6
1527709349178782,-12,-2,-15,4,3,1,0,0
1527709349179782,-10,12,10,0,-1,2,7,19
1527709349179782,34,16,8,5,-3,6,1,5
1527709349200768,9,17,16,-4,3,4,4,0
1527709349200768,0,0,-23,-10,-1,-3,3,6
1527709349202767,-13,-25,9,-2,-2,-5,3,-9
1527709349202767,-23,1,-12,-3,5,0,-11,-20
1527709349214759,-1,15,6,-3,-4,2,4,10
1527709349214759,-6,7,-6,-7,-4,1,0,-6
1527709349223754,-6,-3,3,-1,-4,2,4,-11
1527709349223754,-11,-9,1,-7,2,-1,16,35
1527709349238747,5,6,-28,3,0,2,-2,2
1527709349238747,4,-12,27,1,-16,-5,1,7
1527709349239745,-23,-1,-10,11,11,2,-9,2
1527709349239745,22,9,24,-4,-5,1,20,1
1527709349260730,-5,-6,3,-8,-7,-4,4,-1
1527709349260730,15,-23,-5,6,3,-1,3,11
1527709349262729,-13,13,-15,-11,-3,-1,-3,8
1527709349262729,5,-6,26,26,-3,-6,3,-8
1527709349283718,15,16,16,-5,4,2,1,-6
1527709349283718,-4,-1,-9,-21,0,-4,-8,-13
1527709349285715,15,-12,-5,9,8,4,-5,-11
1527709349285715,-13,68,-15,-17,-10,-4,-4,14
1527709349298707,-5,-26,-7,6,3,2,-9,-5
1527709349298707,7,-1,-6,4,10,2,0,9
1527709349300705,36,5,6,-9,-12,-1,11,23
1527709349300705,-42,-18,0,4,2,8,-5,-17
1527709349320693,-4,14,2,-1,9,-2,7,3
1527709349320693,-4,-6,-1,1,1,8,-8,0
1527709349322693,4,7,-13,-7,0,2,-12,-14
1527709349322693,13,-23,6,-5,3,2,-2,-18
1527709349343682,26,-7,-25,3,7,0,-10,-15
1527709349343682,-16,11,9,-1,-15,-5,7,-11
1527709349345681,-6,-12,8,-6,9,-1,-3,-6
1527709349345681,21,-7,12,-3,-1,2,-2,-3
1527709349357670,-14,8,-7,-7,-5,2,-5,9
1527709349357670,0,-10,0,2,8,-4,5,6
1527709349366664,-19,6,-8,0,1,-3,-5,-37
1527709349366664,37,-46,-4,-8,-6,-2,2,41
1527709349381655,3,27,26,8,17,8,-22,-21
1527709349381655,-21,6,-1,4,-8,2,-1,-2
1527709349383654,-1,1,0,3,13,6,-4,-7
1527709349383654,-6,-10,-15,-5,-5,-5,10,-6
1527709349403642,-2,-8,11,5,-7,-4,10,26
1527709349403642,34,-6,-5,1,-7,-4,10,-2
1527709349405642,-7,-7,-3,2,-9,-2,-13,-10
1527709349405642,13,14,-8,6,-1,0,-7,-5
1527709349417634,23,8,11,-8,-11,3,23,7
1527709349417634,10,11,-1,-5,-2,-2,-2,3
1527709349424629,-3,-19,-17,0,2,0,13,5
1527709349424629,16,14,8,7,2,-4,-3,1
1527709349440619,-8,-11,-7,-1,-10,-6,0,17
1527709349440619,0,-9,-3,1,-7,1,-2,-13
1527709349442618,-12,8,37,-8,-13,-7,22,6
1527709349442618,-41,25,-28,0,15,4,-8,-19
1527709349463604,3,7,-16,12,-3,-1,-8,-20
1527709349463604,-2,0,13,-5,13,7,-8,-6
1527709349465605,-8,10,-2,0,-4,-3,-8,-21
1527709349465605,3,-22,-6,-6,2,0,-6,-6
1527709349477595,-1,-22,15,0,-7,-5,15,11
1527709349477595,-7,19,-21,-4,-5,-7,-5,-13
1527709349484591,-17,-50,-19,7,21,3,-18,-12
1527709349484591,-6,-5,3,-16,-7,-5,4,-5
1527709349501580,0,-21,-4,19,12,-1,-7,0
1527709349501580,1,3,16,-2,13,6,-8,-4
1527709349502580,10,9,5,-2,-5,-1,6,13
1527709349502580,-29,-1,-15,-2,-2,3,-11,-2
1527709349523566,12,-12,-3,7,2,2,5,-7
1527709349523566,-7,16,9,0,-14,-6,11,24
1527709349525566,25,-2,-3,3,8,2,2,-7
1527709349525566,22,29,2,6,-9,-2,5,-2
1527709349537565,12,1,12,-12,-2,3,-4,-19
1527709349537565,3,16,-16,0,-3,-5,5,0
1527709349546557,70,16,7,5,7,5,-7,-1
1527709349546557,11,3,3,-1,-6,0,6,2
1527709349561544,-7,-14,-3,-9,-2,-6,3,-6
1527709349561544,38,7,-3,4,11,8,-14,-19
1527709349562543,-28,-25,-1,3,-21,-3,10,51
1527709349562543,-8,-22,-12,4,12,-1,-5,1
1527709349583530,-22,7,5,-7,3,1,1,-2
1527709349583530,-13,-11,-1,1,-2,1,10,-13
1527709349585561,11,-1,3,2,-3,-2,2,16
1527709349585561,-26,-20,2,2,-6,-2,-3,-12
1527709349597524,-4,24,4,-4,14,10,-14,10
1527709349597524,-7,-22,-5,-4,0,-5,-4,-1
1527709349604520,4,23,1,-3,-3,-6,3,-13
1527709349604520,4,22,21,-7,-12,3,13,17
1527709349621506,23,-28,-22,6,5,8,5,11
1527709349621506,-14,-5,2,3,-1,-5,-1,11
1527709349622505,-13,-13,3,-4,7,2,1,-6
1527709349622505,14,18,-2,-2,8,-3,-5,-10
1527709349643493,-13,-9,-4,-1,-1,-5,-8,18
1527709349643493,-44,-1,-5,3,8,5,-1,-20
1527709349645492,2,-18,8,-10,7,4,-4,-2
1527709349645492,-3,-15,-16,8,8,3,-2,-7
1527709349658485,-17,7,4,-6,-7,-10,-1,-10
1527709349658485,-19,17,8,-2,6,4,5,19
1527709349664480,3,3,-10,8,5,-5,-5,1
1527709349664480,2,-15,13,-2,-2,3,1,9
1527709349681469,-14,10,-7,-2,4,3,-10,-14
1527709349681469,16,-24,6,-1,-3,-2,3,2
1527709349682468,-51,-7,-27,3,-2,-5,-13,7
1527709349682468,20,20,17,-3,-8,-3,-2,-1
1527709349703455,5,-6,-3,5,0,-4,-7,-3
1527709349703455,-3,-6,-2,-4,-4,0,1,-1
1527709349705454,-2,1,-12,-4,-12,-2,11,-13
1527709349705454,8,-6,-10,2,-11,-11,9,25
1527709349717446,-16,-18,-10,-8,-28,-11,1,8
1527709349717446,11,1,4,-3,2,-2,-6,-1
1527709349724442,19,27,23,5,5,5,-6,0
1527709349724442,28,-12,-12,-5,-5,-1,2,33
1527709349741431,-21,-13,-1,1,9,-7,-4,-50
1527709349741431,1,13,6,-1,-1,-2,-6,14
1527709349743431,-6,18,3,1,-4,-1,-9,-3
1527709349743431,-10,2,-2,1,10,3,-3,-12
1527709349763418,22,2,13,-5,-13,-5,7,-6
1527709349763418,11,-90,-29,-4,12,0,-10,-15
1527709349765417,-10,70,12,-4,9,3,-10,-8
1527709349765417,-4,0,3,3,6,5,-9,-15
1527709349777410,6,3,2,1,8,8,6,-2
1527709349777410,-17,-6,12,-2,2,8,-5,-11
1527709349786404,6,-33,-35,-4,-1,-1,4,-1
1527709349786404,-3,5,6,1,4,1,-12,-4
1527709349801397,6,12,8,1,4,3,-6,-5
1527709349801397,12,15,-1,4,9,5,4,12
1527709349802394,-24,-7,2,-6,-11,-2,7,-4
1527709349802394,-18,-19,-5,14,15,3,-8,-5
1527709349823381,11,2,-1,-7,-1,0,2,4
1527709349823381,11,18,3,1,-4,-5,-2,0
1527709349825380,29,4,3,-3,-1,1,4,-10
1527709349825380,-22,-27,-17,-5,8,0,0,-6
1527709349837375,6,21,8,8,1,4,4,12
1527709349837375,17,13,-5,-7,-4,1,12,-7
1527709349846367,35,-15,-2,0,3,4,0,4
1527709349846367,18,8,11,-3,-14,-2,23,-1
1527709349861358,-12,-41,-27,0,-2,-4,-3,3
1527709349861358,-3,15,21,-1,-8,-3,0,7
1527709349862356,13,13,-2,3,9,5,-2,10
1527709349862356,-6,-3,-4,-8,-4,1,2,-6
1527709349883343,0,-2,5,3,-1,2,1,7
1527709349883343,19,6,6,2,-14,-6,9,9
1527709349885342,37,7,-4,1,-12,-6,17,1
1527709349885342,13,12,6,1,1,5,4,-22
1527709349897335,-18,11,6,-1,6,-3,-2,5
1527709349897335,-2,-3,-16,4,-2,3,-16,6
1527709349906330,1,-15,12,6,-4,-4,-5,-5
1527709349906330,-7,-18,0,-2,7,0,-4,1
1527709349921320,11,26,-4,1,-2,4,-3,0
1527709349921320,-11,0,-23,-1,-5,-7,4,5
1527709349922319,28,18,-3,-7,-5,-7,-3,11
1527709349922319,-16,-14,4,4,-10,-10,-4,9
1527709349943306,-31,18,1,-7,-11,-4,5,7
1527709349943306,-2,19,9,3,-3,0,4,1
1527709349945306,-14,-12,4,1,-3,0,-1,-2
1527709349945306,15,0,-16,6,9,1,-2,-6
1527709349957298,27,11,-1,-6,8,4,-9,-3
1527709349957298,23,9,9,5,-4,2,6,22
1527709349966293,-3,-9,-5,-3,-7,-2,5,3
1527709349966293,-2,0,8,-1,-10,-3,-12,1
1527709349981282,-11,-10,-5,-2,3,1,9,20
1527709349981282,-50,-5,10,3,2,-4,-4,-21
1527709349982282,-35,-41,-3,-2,11,3,-10,-3
1527709349982282,43,72,6,-3,2,2,8,12
1527709350003270,13,-2,5,1,-15,-8,-1,13
1527709350003270,-6,-3,-10,-4,7,-1,-4,-2
1527709350005268,-32,-17,6,6,-6,-8,9,4
1527709350005268,-27,-16,-2,-2,13,5,-1,-7
1527709350017260,10,-42,-9,0,6,4,20,1
1527709350017260,-4,27,17,-7,-9,-4,1,-18
1527709350026254,-62,-38,-27,-1,14,2,-10,-6
1527709350026254,16,41,-4,-1,2,2,3,3
1527709350041245,-3,-5,4,0,-2,-1,-11,-4
1527709350041245,-15,-15,6,4,-4,-3,-6,5
1527709350043244,13,-4,-18,-1,11,2,-7,-3
1527709350043244,-10,-10,6,-1,1,-4,-4,2
1527709350063232,4,-1,-3,-2,-6,-7,-2,-16
1527709350063232,19,-5,-8,0,1,-4,-2,11
1527709350065230,-4,14,9,-4,-3,-6,-9,-2
1527709350065230,1,-22,6,0,-1,0,-3,-4
1527709350077223,3,12,3,0,1,4,14,-1
1527709350077223,55,-2,0,-8,-11,-2,11,18
1527709350086219,38,-5,2,0,2,-2,9,-6
1527709350086219,3,18,-8,3,-2,-4,-5,-4
1527709350101208,-10,-11,9,-5,0,-7,-9,-6
1527709350101208,-28,19,-6,3,6,5,-8,-13
1527709350103206,-17,11,21,-3,-12,-4,16,-6
1527709350103206,-9,-32,-17,1,7,0,-10,-15
1527709350123198,-6,-10,-3,0,15,7,-6,-10
1527709350123198,-12,-24,-3,3,5,0,-8,-25
1527709350125193,35,3,4,-2,7,3,-7,13
1527709350125193,-10,-3,-5,3,-8,0,6,-6
1527709350137186,-18,-15,-7,-9,5,-10,-6,-22
1527709350137186,13,-8,-11,0,1,-1,-4,-3
1527709350146180,-6,0,14,4,8,1,-9,-7
1527709350146180,-10,-15,-1,-6,-5,-2,13,6
1527709350161172,3,16,0,-3,-12,-2,8,16
1527709350161172,-1,9,-4,-1,-1,0,18,7
1527709350163169,-3,1,2,1,2,2,10,-8
1527709350163169,-3,2,12,9,-1,8,-13,-2
1527709350184156,-6,10,-15,-1,3,3,5,3
1527709350184156,4,-11,-2,-4,2,1,1,-11
1527709350185156,-4,-2,18,3,-3,1,-5,-7
1527709350185156,-5,4,-19,-4,1,-3,12,8
1527709350213138,-4,-1,11,2,-6,-3,-17,-6
1527709350213138,-3,-10,-3,4,10,5,-15,12
1527709350215137,-28,-13,-5,-3,3,0,-40,-22
1527709350215137,5,5,7,1,12,1,-48,-5
1527709350221140,-4,5,21,-1,12,-1,8,7
1527709350221140,-10,18,-7,-4,-3,-1,-1,-2
1527709350223139,3,4,-1,14,2,-1,2,3
1527709350223139,-10,-29,4,-10,-6,2,8,-5
1527709350243120,0,-7,-15,9,2,0,-1,-9
1527709350243120,-18,-9,9,3,6,4,5,-1
1527709350245120,-15,10,-4,-5,-3,-2,-6,10
1527709350245120,3,-16,-1,-5,-8,-8,9,11
1527709350266105,7,8,10,4,-10,0,16,13
1527709350266105,-15,-14,-32,-10,-1,-6,-14,7
1527709350268105,16,5,-9,4,-2,1,-1,2
1527709350268105,3,5,8,-6,-2,-4,9,-7
1527709350281096,-7,2,-1,3,1,3,-17,-7
1527709350281096,26,9,7,3,1,0,4,-4
1527709350283097,-26,15,12,-2,1,3,9,13
1527709350283097,18,-16,0,2,7,5,0,4
1527709350304081,2,-3,-8,-2,-5,1,-7,5
1527709350304081,8,-2,-5,0,0,3,12,4
1527709350305082,-29,9,-2,-2,-3,1,6,-10
1527709350305082,-4,-20,-5,2,3,-1,0,9
1527709350326069,24,20,-2,-7,2,5,-10,9
1527709350326069,-2,-4,-12,-2,-11,-7,15,29
1527709350328067,13,-3,7,-2,3,-1,-3,10
1527709350328067,-1,21,17,2,-11,-5,-2,-2
1527709350341059,2,-14,-28,2,-1,-4,-15,-10
1527709350341059,10,21,18,-2,-1,-4,-7,-1
1527709350347057,10,-17,-9,-10,-5,0,25,-2
1527709350347057,14,40,-16,4,4,2,15,0
1527709350364044,21,0,12,0,-9,-2,18,12
1527709350364044,-37,-9,8,2,-4,-3,0,0
1527709350365045,7,-8,-7,-7,3,-1,-1,3
1527709350365045,-3,19,-4,3,-4,-3,4,-6
1527709350386033,-10,-12,5,0,6,4,-18,8
1527709350386033,12,-10,5,-4,4,0,-5,-9
1527709350388030,-11,-10,-2,5,4,5,-2,9
1527709350388030,-12,-15,-8,-3,13,5,-12,-6
1527709350400022,-15,6,-1,-1,0,-1,8,8
1527709350400022,6,1,16,-2,5,-1,-18,-16
1527709350407019,19,-12,-12,-2,-8,1,5,-1
1527709350407019,6,9,14,6,3,-3,-5,22
1527709350424009,4,-8,-8,-5,8,3,1,-11
1527709350424009,9,7,4,-1,-4,0,7,-9
1527709350425006,-10,-1,-5,0,2,0,-7,2
1527709350425006,-19,-14,-1,-7,-2,-2,-9,-4
1527709350445994,-16,-5,-7,-3,5,-2,-5,-14
1527709350445994,1,4,1,1,4,-1,1,-24
1527709350447993,7,9,-13,1,7,1,0,6
1527709350447993,-14,-6,3,2,-4,0,-4,-3
1527709350459986,-9,-2,25,1,-6,-2,-4,-10
1527709350459986,-3,-15,-26,-4,9,4,-14,-7
1527709350466981,9,18,32,8,-9,-9,-16,-9
1527709350466981,3,3,-18,-9,-10,-2,-2,-7
1527709350490967,14,-13,-1,0,-1,-2,6,2
1527709350490967,-4,4,4,11,-6,0,5,13
1527709350492967,3,-1,-4,-5,1,-2,10,7
1527709350492967,4,-9,0,-2,8,3,1,2
1527709350505956,-12,13,1,2,-4,-3,4,1
1527709350505956,1,0,6,-2,-2,-1,-2,-2
1527709350507956,36,33,-9,-3,-9,-5,10,-1
1527709350507956,33,17,6,-1,-8,-2,-7,14
1527709350520948,-17,-1,-3,-1,1,-1,3,-2
1527709350520948,1,-4,0,-5,-5,-3,16,14
1527709350526943,6,11,18,0,-5,2,-3,4
1527709350526943,-2,12,0,-5,-12,-2,31,-12
1527709350543933,22,19,-2,3,11,4,-11,-19
1527709350543933,-6,-17,-4,-1,3,-1,-9,-8
1527709350544932,-8,-6,-4,-4,-8,-5,-5,-9
1527709350544932,-13,-19,-8,-7,3,4,3,-7
1527709350565918,-3,-1,-2,-1,-7,0,8,-2
1527709350565918,2,-4,14,3,0,5,6,5
1527709350567919,-22,-11,-26,0,7,-2,0,-6
1527709350567919,5,-5,8,0,-5,-2,0,9
1527709350580909,3,-10,1,-2,6,4,-5,2
1527709350580909,-6,2,-1,1,-4,-3,3,16
1527709350586906,-1,-4,2,-2,-8,-2,10,24
1527709350586906,-1,-12,0,1,5,4,-2,2
1527709350603895,2,11,-5,1,-10,-10,7,1
1527709350603895,-18,-7,-2,0,11,8,-1,-10
1527709350604895,1,23,11,-3,-6,1,12,0
1527709350604895,21,-11,-19,-7,-3,-4,1,6
1527709350625883,9,-10,8,3,7,2,2,2
1527709350625883,-8,17,-1,-4,-13,-5,2,-2
1527709350627881,-3,-15,3,3,13,1,-6,-14
1527709350627881,3,-7,-11,-1,1,-2,-13,-2
1527709350639873,-19,2,10,0,-13,-9,5,-16
1527709350639873,13,-9,-13,-4,11,-2,-17,5
1527709350648868,6,2,3,-6,-10,-5,1,-14
1527709350648868,-8,-5,4,7,7,0,-1,1
1527709350663860,0,-1,-2,-2,-5,0,8,8
1527709350663860,-3,-34,-7,-3,2,-2,4,5
1527709350664858,2,6,2,-2,10,4,-17,21
1527709350664858,-12,9,7,-1,-7,-7,3,-12
1527709350685846,4,0,0,-1,6,2,-8,4
1527709350685846,16,9,-6,-5,0,0,-2,-9
1527709350687844,3,-35,1,6,4,-1,-6,-10
1527709350687844,3,1,-3,-2,10,0,-16,-15
1527709350699837,40,18,-22,-4,-4,-2,5,14
1527709350699837,-5,0,7,0,-1,-3,4,11
1527709350708829,-13,-9,-6,1,-1,2,4,-8
1527709350708829,-5,12,3,-2,0,0,2,-3
1527709350723823,4,-1,10,1,3,-2,-4,6
1527709350723823,-4,12,-2,0,-4,-3,-7,-7
1527709350724821,-5,5,-11,-2,5,1,6,2
1527709350724821,5,-3,7,2,-2,-2,1,5
1527709350745808,-9,-7,-4,0,-3,4,-4,-3
1527709350745808,1,5,8,3,3,-1,-5,-2
1527709350747806,-16,10,6,2,-2,-3,-5,-5
1527709350747806,-3,-5,2,2,1,2,8,4
1527709350759800,-3,-7,8,1,-6,-5,28,-16
1527709350759800,-10,0,-15,-1,3,-1,-25,-5
1527709350768793,-29,6,0,2,16,8,-26,-22
1527709350768793,-15,13,2,-3,0,1,10,-2
1527709350783787,1,1,-3,7,6,2,-11,8
1527709350783787,-7,-10,13,7,1,-1,5,-7
1527709350784784,-2,-6,0,-4,-7,-9,3,0
1527709350784784,5,3,3,0,1,-1,-10,6
1527709350805770,-2,-10,-14,-7,-1,-1,-7,5
1527709350805770,17,2,-1,1,-2,-2,12,2
1527709350807770,8,-6,1,0,-2,2,-2,2
1527709350807770,-2,-1,0,4,-2,4,-4,0
1527709350819765,-8,-9,-1,-4,3,-1,-10,1
1527709350819765,-2,15,10,-7,-15,-4,30,-1
1527709350828756,14,-12,-14,-2,2,2,-1,2
1527709350828756,-62,-14,-13,0,9,-2,-9,-5
1527709350843746,-7,-1,0,0,-1,-4,10,-2
1527709350843746,3,1,3,2,7,5,4,-2
1527709350844746,46,4,0,-5,-7,-7,9,-12
1527709350844746,8,-6,8,2,-10,-6,-16,0
1527709350865734,-8,11,4,-3,1,1,-5,-12
1527709350865734,3,-23,-9,3,-1,-6,-2,5
1527709350867731,0,-1,-3,-3,6,2,-1,4
1527709350867731,16,8,3,0,-12,-4,13,-7
1527709350879724,-4,-5,0,-1,2,1,-19,6
1527709350879724,0,1,2,0,3,5,-5,-4
1527709350888719,-15,7,-7,1,-7,-7,-3,-3
1527709350888719,-47,-10,-2,0,10,3,-9,-3
1527709350903709,-5,0,6,3,2,1,-10,-3
1527709350903709,-8,-4,-6,-3,-7,1,0,4
1527709350904708,-18,8,10,0,-10,-1,7,0
1527709350904708,9,-8,-20,-1,-1,-4,8,2
1527709350925699,1,5,5,-4,-8,1,8,0
1527709350925699,-5,-2,1,-2,-6,-4,-4,-8
1527709350927695,8,5,-3,5,0,7,-2,25
1527709350927695,32,-6,5,-1,2,3,-4,4
1527709350939688,3,-6,-7,0,-5,-6,7,-2
1527709350939688,2,3,1,0,8,-3,-13,3
1527709350948681,0,-1,-12,-3,6,-2,-2,11
1527709350948681,0,-3,4,-7,-7,-1,-1,-2
1527709350963672,24,10,2,-1,4,5,-1,12
1527709350963672,0,0,-1,-1,-3,0,-3,-2
1527709350965672,12,7,16,-2,0,0,-5,2
1527709350965672,14,25,-4,1,-8,-2,8,5
1527709350986657,12,0,2,1,0,4,5,11
1527709350986657,-6,1,9,-1,0,1,5,-6
1527709350987657,-12,2,-11,3,-5,-4,-2,-9
1527709350987657,3,-2,1,0,-2,0,0,-1
1527709350999649,-23,-9,6,-5,-4,-9,-4,-7
1527709350999649,16,-16,-4,3,7,4,2,2
1527709351008645,-7,4,0,-4,1,0,0,-9
1527709351008645,0,2,-2,0,3,-1,-3,-1
1527709351023641,0,-17,-5,6,0,-3,0,0
1527709351023641,-7,16,16,-7,-12,-6,5,-2
1527709351025637,-1,-13,-19,2,12,1,2,4
1527709351025637,8,-24,0,1,14,3,-3,-1
1527709351046622,-7,-2,-5,1,-5,-6,3,-4
1527709351046622,36,10,-1,0,-2,0,11,15
1527709351048620,30,15,6,-2,-13,-2,7,12
1527709351048620,18,0,-1,-1,-2,-2,-1,0
1527709351059612,-11,2,-5,0,4,7,1,-9
1527709351059612,-4,-1,4,1,-4,2,-3,-2
1527709351068607,-8,-9,-8,0,1,-1,3,1
1527709351068607,1,10,15,-2,-7,1,9,-1
1527709351083598,2,-5,-7,3,9,0,-1,1
1527709351083598,-12,9,-4,2,2,2,-12,-8
1527709351085596,-6,-3,4,-3,-4,2,0,-8
1527709351085596,-14,-2,5,-1,0,-4,-3,-4
1527709351105584,-3,3,5,-5,-5,3,-1,-9
1527709351105584,24,2,-17,1,3,-1,-1,3
1527709351107582,-33,-19,2,2,1,2,-1,9
1527709351107582,3,0,-3,-7,2,3,0,2
1527709351128570,8,-7,-9,-4,6,-4,-15,-12
1527709351128570,15,12,7,-1,-6,-1,-2,16
1527709351130569,-10,1,-1,1,0,-2,19,-4
1527709351130569,10,-8,-4,1,7,2,9,7
1527709351142560,-5,16,12,-3,-6,0,2,-4
1527709351142560,-13,-17,-6,0,9,4,-6,-6
1527709351149556,5,5,4,-1,-3,-2,1,-2
1527709351149556,-12,-5,6,2,-1,-3,-4,-2
1527709351166545,2,4,-7,3,5,3,2,11
1527709351166545,-10,23,13,2,1,-4,3,-18
1527709351167546,-38,-22,-19,-4,14,0,-17,-19
1527709351167546,14,4,5,2,-10,-4,1,-6
1527709351188535,3,-5,-4,-3,2,0,-1,2
1527709351188535,-22,-6,-8,-6,0,-1,-7,1
1527709351190532,17,2,10,1,-6,-5,-1,-12
1527709351190532,-4,19,1,0,1,7,-8,1
1527709351202524,6,-4,-11,-4,3,-1,-11,-13
1527709351202524,-9,-42,-15,1,6,3,-12,-1
1527709351209519,9,9,8,3,-3,0,-1,11
1527709351209519,-48,-14,-14,-1,-7,-1,21,-3
1527709351226510,14,5,10,5,-9,2,7,12
1527709351226510,0,14,3,-1,-7,-5,2,-6
1527709351227508,0,-6,25,-1,-10,-4,7,21
1527709351227508,4,-12,-44,3,5,-7,-22,-3
1527709351248494,-19,-1,9,-2,1,-3,4,-6
1527709351248494,-10,-5,-2,0,1,-1,1,-1
1527709351250494,20,-8,4,7,-2,0,-4,-13
1527709351250494,22,6,8,-4,-5,-4,3,-6
1527709351262486,-8,-3,2,1,0,0,8,2
1527709351262486,8,4,-8,-1,-4,-5,-1,0
1527709351271481,4,-4,-7,-3,6,4,-5,-4
1527709351271481,10,12,10,-2,-3,2,8,-1
1527709351286473,-4,5,-2,4,1,-2,-1,-4
1527709351286473,-16,-19,-1,-3,4,0,3,2
1527709351287471,-31,6,2,0,-10,-3,0,-12
1527709351287471,0,-5,7,1,4,4,-3,-5
1527709351308463,-5,-2,5,0,-5,-5,2,-6
1527709351308463,9,12,-1,-4,2,3,0,0
1527709351310457,16,6,-1,2,6,-1,-4,6
1527709351310457,-3,-4,3,-4,-3,-1,-6,14
1527709351322450,2,-14,-21,-1,11,8,-1,4
1527709351322450,-5,11,5,7,-2,5,3,-8
1527709351331444,-31,1,-1,-3,14,5,-23,15
1527709351331444,-5,5,4,3,5,3,-11,-1
1527709351346436,5,8,5,-2,-13,-4,8,-1
1527709351346436,-4,-10,-2,2,0,-2,0,6
1527709351347434,15,-1,-5,-1,0,2,1,1
1527709351347434,6,4,2,-1,-5,-3,0,0
1527709351368420,-6,-3,3,3,6,6,-7,2
1527709351368420,2,1,-4,1,-8,1,1,-8
1527709351370419,10,8,0,-5,-2,-2,4,-3
1527709351370419,7,0,3,1,-1,2,5,0
1527709351382411,3,1,3,0,5,-5,-6,4
1527709351382411,0,6,4,-1,4,1,-3,3
1527709351391406,8,6,-8,-2,-14,-2,11,-1
1527709351391406,-4,-3,0,-1,2,0,1,6
1527709351406396,-3,-1,1,-5,-3,-2,-2,-2
1527709351406396,6,5,-3,-2,-3,1,-7,-5
1527709351407396,5,-3,-4,-3,11,0,-8,-2
1527709351407396,1,-3,-5,0,0,-1,0,-5
1527709351428382,-5,-4,8,0,1,0,3,-3
1527709351428382,-5,10,-10,-5,-1,-3,3,1
1527709351430381,-41,-23,-11,-3,14,6,-6,-18
1527709351430381,19,-8,11,3,4,4,8,3
1527709351443373,7,10,-3,-6,-6,-2,4,1
1527709351443373,-17,-15,-3,1,5,-1,2,5
1527709351449369,10,2,-4,-1,-1,-1,2,1
1527709351449369,-16,5,4,1,-5,-2,4,-5
1527709351466359,8,-11,0,6,5,0,-11,9
1527709351466359,16,-22,4,-5,1,6,4,22
1527709351467359,19,0,-2,0,-5,-8,2,8
1527709351467359,-3,6,-1,-3,1,0,-2,-2
1527709351488346,-1,0,11,-3,-6,-3,4,0
1527709351488346,-3,7,5,3,0,0,-7,-1
1527709351490345,10,1,3,1,-10,-2,34,12
1527709351490345,-1,-6,-7,1,7,3,-13,3
1527709351503336,2,-1,-1,-3,0,0,-3,3
1527709351503336,37,7,-2,-2,-12,-7,10,11
1527709351509332,16,0,5,-1,-2,-1,-4,-15
1527709351509332,19,11,5,2,-1,-5,4,-3
1527709351526322,0,-2,-3,3,-2,0,2,25
1527709351526322,1,4,-2,-1,-4,-1,0,-11
1527709351527322,3,6,3,2,-4,-3,-9,3
1527709351527322,-8,-10,-1,6,1,-1,-2,6
1527709351548308,6,22,-4,-2,-11,0,2,-11
1527709351548308,-18,-17,3,5,12,3,-12,-17
1527709351550307,-7,-9,-5,-1,5,3,-6,1
1527709351550307,-11,0,6,3,-5,-5,8,-7
1527709351563299,-7,1,-1,4,3,0,-3,-3
1527709351563299,-5,4,0,-2,-2,-5,5,-3
1527709351569295,-4,2,-6,-2,-1,0,1,1
1527709351569295,0,5,-5,-3,5,-1,-5,-1
1527709351586288,3,-11,-7,-1,2,0,1,-3
1527709351586288,1,6,2,2,2,-2,0,-1
1527709351587284,8,5,3,-5,-9,-3,-4,0
1527709351587284,-6,-7,-2,-1,-2,0,5,4
1527709351608272,-41,-11,-1,1,7,0,-7,-16
1527709351608272,-3,8,-8,-5,-15,-6,5,1
1527709351610271,10,2,10,5,2,1,1,1
1527709351610271,-2,1,-1,-5,-10,-8,2,11
1527709351623262,-4,-4,1,2,5,-1,-2,-9
1527709351623262,11,-2,5,-5,-5,-1,-1,-8
1527709351630257,-8,-6,6,-2,1,-2,-2,-2
1527709351630257,3,-8,-4,3,2,-2,-3,-1
1527709351646247,2,18,-8,-4,-7,-4,4,-4
1527709351646247,-7,2,3,3,6,5,-5,5
1527709351647247,4,0,-3,1,2,-1,2,-3
1527709351647247,0,-10,-9,-6,-6,-1,7,-5
1527709351668235,-1,-6,4,-1,-2,1,-6,8
1527709351668235,-7,0,-1,0,2,2,-7,1
1527709351670232,-5,0,-3,1,0,6,0,6
1527709351670232,17,18,7,-1,3,6,-11,-18
1527709351682224,34,0,7,-1,-8,1,5,0
1527709351682224,-45,-17,-6,-1,3,-2,-6,0
1527709351691220,-2,-2,2,-1,-6,-3,4,-6
1527709351691220,-1,-3,-1,0,4,1,-4,5
1527709351706210,0,1,3,-3,0,4,-2,0
1527709351706210,7,4,0,-1,-5,0,12,-4
1527709351708208,10,5,7,-1,-1,3,-1,2
1527709351708208,-11,1,-10,-2,0,0,3,14
1527709351728197,2,-11,-3,-1,4,0,0,10
1527709351728197,4,15,5,-1,1,-2,2,2
1527709351730196,-6,-5,-11,-2,4,-1,0,-1
1527709351730196,-6,-2,6,-1,-1,-2,-2,-4
1527709351742187,12,14,4,-1,-8,1,7,2
1527709351742187,59,-6,-7,1,0,-4,0,-2
1527709351751182,12,0,4,1,-7,-3,3,1
1527709351751182,-2,-4,-3,-7,-5,-3,5,-2
1527709351766172,2,-2,-10,2,2,-2,-7,1
1527709351766172,12,-2,6,2,-3,1,2,-5
1527709351768171,6,4,-1,-1,7,2,-2,-3
1527709351768171,13,5,-1,-1,0,0,0,0
1527709351788163,-14,-8,-8,-1,0,-1,-5,-4
1527709351788163,-11,-11,0,-1,5,4,-4,0
1527709351790159,-8,8,1,-1,-5,1,3,-3
1527709351790159,-7,10,6,3,1,0,-5,2
1527709351802151,16,-16,-8,1,14,6,-11,1
1527709351802151,-14,-1,-4,-4,-11,-5,7,7
1527709351811145,-1,-1,-2,-2,0,1,-6,6
1527709351811145,0,1,3,0,1,5,0,-4
1527709351826139,-6,1,-4,-6,-7,-5,7,1
1527709351826139,-65,-10,0,2,13,3,-6,-13
1527709351828136,2,-12,-2,1,2,0,-8,3
1527709351828136,-3,-5,0,-1,0,0,-4,0
1527709351848122,-5,7,6,-1,-8,-3,6,-4
1527709351848122,4,7,1,-3,8,0,-5,3
1527709351850121,10,4,-1,-2,5,2,1,-6
1527709351850121,-5,6,-1,-1,-4,1,1,11
1527709351862114,5,3,-3,0,8,1,-2,4
1527709351862114,25,4,0,-2,-4,-4,-25,-1
1527709351879102,-15,-6,-5,-1,-4,-2,-1,2
1527709351879102,8,8,3,1,1,1,5,-3
1527709351886098,0,3,-3,-6,-5,-6,1,-3
1527709351886098,34,-6,-2,6,-5,1,4,7
1527709351888099,12,5,2,-4,-4,-6,11,-1
1527709351888099,-2,-5,-8,0,5,-1,-12,0
1527709351908085,-10,-14,0,0,8,0,-2,-1
1527709351908085,-6,7,-6,-4,-6,-7,8,-6
1527709351910083,-7,-2,-2,2,7,6,-14,-5
1527709351910083,-7,-6,4,3,0,-3,4,-3
1527709351922076,12,2,-5,-1,-2,3,4,-4
1527709351922076,-2,-14,-9,-5,3,2,-5,-5
1527709351931070,-7,3,3,-2,-8,-4,3,-1
1527709351931070,-6,3,-6,-1,-2,4,-7,-20
1527709351945064,8,0,4,-1,-4,3,0,-4
1527709351945064,9,1,7,1,2,1,-1,-1
1527709351952056,-3,-11,-4,0,5,3,5,0
1527709351952056,-4,-8,-5,2,-5,-9,4,-7
1527709351969046,15,5,-2,-4,-1,-1,2,3
1527709351969046,-18,4,-1,-4,5,6,2,-2
1527709351970047,9,0,3,-1,-5,-8,10,4
1527709351970047,4,4,2,0,6,-2,-6,10
1527709351991032,-17,-3,2,0,-7,-3,-1,-1
1527709351991032,-10,8,1,4,-2,-5,-2,3
1527709351993032,-7,-4,-5,-4,-2,-3,4,15
1527709351993032,-23,-5,0,0,-1,-1,-5,-10
1527709352006028,-7,-10,0,3,3,1,-5,1
1527709352006028,4,14,6,4,-17,-8,16,1
1527709352008022,-7,-2,-1,-1,7,2,-8,0
1527709352008022,6,-1,-1,-3,-3,0,1,3
1527709352029010,-16,-2,-3,-2,-2,-1,-3,-6
1527709352029010,-56,-14,-8,1,14,8,-12,-3
1527709352030010,20,6,7,-2,-12,0,4,-6
1527709352030010,-6,7,-2,1,1,2,3,6
1527709352042002,-6,-1,1,1,-1,2,-2,-4
1527709352042002,7,-6,-6,1,3,3,-3,7
1527709352050995,-6,6,5,4,1,-2,-17,1
1527709352050995,-10,0,4,-6,-6,-4,-8,-6
1527709352065986,-1,-5,-1,3,10,5,-6,0
1527709352065986,12,4,5,-1,-2,1,5,0
1527709352067985,-8,4,-3,1,-1,0,-1,-3
1527709352067985,4,-16,7,2,-1,2,-1,9
1527709352088979,-3,5,-18,-2,-3,-1,0,-10
1527709352088979,1,-2,10,1,1,1,-2,-5
1527709352089971,1,8,-1,0,0,3,3,-4
1527709352089971,8,-10,-3,-2,4,2,-2,-5
1527709352110958,6,-1,3,-3,3,-2,8,-1
1527709352110958,17,-5,0,-4,-11,-1,8,-3
1527709352112957,47,1,-5,2,4,3,-7,11
1527709352112957,29,4,-2,-1,6,3,2,2
1527709352125956,19,7,13,0,-20,-5,27,23
1527709352125956,14,2,-9,0,8,-2,-25,2
1527709352127948,-16,4,0,-2,-6,-4,10,-1
1527709352127948,-5,-6,-4,-2,-7,-7,-18,-3
1527709352155931,-8,2,0,2,6,2,-66,-3
1527709352155931,-1,-16,2,0,5,-2,-9,5
1527709352157931,-5,4,1,0,-13,1,21,7
1527709352157931,0,6,-6,-1,-9,-3,9,-1
1527709352170922,-13,-4,7,9,-3,-2,7,0
1527709352170922,-10,0,-13,-6,-2,-5,12,-6
1527709352172920,-11,0,11,0,2,-8,-10,-8
1527709352172920,-1,-8,-11,-2,9,8,-3,2
1527709352185912,0,2,11,-5,0,3,5,2
1527709352185912,15,17,-8,-1,-12,-3,9,-6
1527709352191908,-6,-5,0,3,10,5,-1,-8
1527709352191908,-6,0,1,-1,0,-2,7,12
1527709352208898,-2,2,-7,-1,4,0,6,-26
1527709352208898,-59,-2,0,-7,-4,-3,8,-15
1527709352209898,-5,-10,-6,-2,8,3,-13,-1
1527709352209898,0,-3,5,-2,3,3,-5,-5
1527709352230884,11,16,-4,-2,0,-5,6,-2
1527709352230884,12,-19,-3,6,13,9,-4,0
1527709352232883,-3,0,-5,1,-3,-2,-1,4
1527709352232883,-5,-1,5,-2,-6,-3,14,5
1527709352245881,-2,1,-2,0,1,0,-1,12
1527709352245881,19,14,7,-1,-6,-4,4,8
1527709352251871,-43,-21,-10,-2,15,4,-10,-9
1527709352251871,26,11,0,-1,-8,-1,2,-6
1527709352268861,-8,-14,-7,1,3,1,-2,7
1527709352268861,0,-4,9,2,-3,-1,20,8
1527709352269860,-1,1,5,2,-5,-1,5,-12
1527709352269860,-3,0,-9,2,4,0,7,10
1527709352290862,-5,-9,7,1,-15,-4,10,4
1527709352290862,4,-1,2,-1,-2,-1,-6,-4
1527709352292846,23,0,1,-2,-3,-2,4,-1
1527709352292846,0,6,2,-1,-2,2,5,0
1527709352305838,6,4,5,-1,0,-5,-6,6
1527709352305838,10,1,-5,-2,-6,1,1,1
1527709352311834,-20,0,-3,1,3,-5,-5,-14
1527709352311834,-13,-10,10,-1,10,3,-1,-8
1527709352328823,-7,-4,-1,-3,-2,-4,-9,-7
1527709352328823,-38,-8,-10,-3,17,3,-35,-8
1527709352329824,11,15,-7,-5,-8,-2,3,-2
1527709352329824,2,-3,7,1,3,0,7,-3
1527709352350809,-5,2,1,4,3,3,-2,-2
1527709352350809,-14,4,-4,-2,2,-2,9,-10
1527709352352808,22,-27,-7,0,-1,-4,-15,21
1527709352352808,-2,16,-5,-3,-15,-7,4,10
1527709352365801,0,-3,0,-2,3,2,4,2
1527709352365801,11,-2,-1,-3,-1,-2,5,4
1527709352372795,-1,5,9,-4,-9,-2,3,-3
1527709352372795,-3,-7,-1,1,-1,-2,3,9
1527709352388788,31,7,-5,-2,0,0,2,5
1527709352388788,15,15,11,3,-6,-5,8,11
1527709352389786,-40,-12,-1,0,4,-3,-5,-7
1527709352389786,2,8,-17,1,-1,-1,15,-3
1527709352410771,16,9,9,0,-11,-4,32,9
1527709352410771,20,11,-2,0,-17,-1,18,3
1527709352412770,3,-1,-1,3,8,0,-8,-9
1527709352412770,-5,-5,-2,-4,7,5,-16,-5
1527709352433758,-19,-2,-7,-5,-3,1,1,-13
1527709352433758,-5,-14,-8,0,4,2,-8,-4
1527709352434757,13,16,6,-3,-2,0,12,7
1527709352434757,-6,-14,1,2,-3,0,-6,-2
1527709352448750,-4,-2,-6,0,7,0,-26,-3
1527709352448750,6,5,15,3,1,2,11,2
1527709352450747,3,-1,-7,-2,4,3,-3,7
1527709352450747,3,7,9,-1,-13,-4,-3,-5
1527709352470736,1,-5,-1,2,7,7,-9,0
1527709352470736,1,-13,-4,-2,10,2,-11,2
1527709352472735,6,6,2,0,-7,0,-1,3
1527709352472735,3,-1,1,1,8,-1,-6,-1
1527709352485726,-3,1,-4,0,-1,-2,3,-2
1527709352485726,-4,2,-1,-4,-4,-6,2,2
1527709352492720,1,-6,1,-1,2,4,1,0
1527709352492720,3,0,-8,-1,0,-3,-7,0
1527709352508711,-6,-2,0,0,1,-4,-1,0
1527709352508711,2,2,3,0,-2,2,0,-2
1527709352509710,-1,-3,-3,1,4,-2,0,2
1527709352509710,-3,-1,-3,-1,5,-3,-5,-2
1527709352530697,0,2,2,-4,-8,-4,8,-2
1527709352530697,1,-1,0,-1,6,-1,-7,4
1527709352532697,0,1,-5,-2,0,-1,-1,0
1527709352532697,-1,1,1,0,-3,3,1,-3
1527709352546689,-3,-2,-2,-1,5,3,0,3
1527709352546689,1,-4,1,0,-7,-3,1,-1
1527709352553683,1,-2,-3,0,2,2,-1,1
1527709352553683,3,3,2,-2,-4,3,1,-6
1527709352568675,-5,-3,1,1,2,-3,-3,1
1527709352568675,1,-1,-2,-1,10,-1,0,0
1527709352570672,3,3,2,1,-10,-4,5,-5
1527709352570672,1,-6,0,-1,-2,3,-6,3
1527709352590660,-1,-1,-2,0,8,-6,0,-3
1527709352590660,-1,1,1,-2,-1,2,1,2
1527709352592658,0,2,-1,-7,-9,-1,-5,1
1527709352592658,1,-1,2,2,-5,-1,4,-2
1527709352604651,-4,-5,-4,0,-1,1,0,2
1527709352604651,2,3,-1,-3,4,0,1,-6
1527709352613645,-1,-5,-3,-2,20,-1,-2,1
1527709352613645,-1,-3,-3,-2,3,3,-5,3
1527709352628636,0,3,4,-9,-43,-2,0,2
1527709352628636,-1,-6,-2,-2,-16,-2,-7,4
1527709352630637,2,0,-1,-1,4,2,2,0
1527709352630637,1,0,1,-1,6,-2,6,-3
1527709352650623,2,2,-2,-3,28,2,6,0
1527709352650623,-3,-1,-2,3,-10,-3,4,-1
1527709352652622,1,0,-3,-2,14,-2,1,1
1527709352652622,0,2,4,-2,-28,-2,-4,0
1527709352664614,0,-4,-1,-4,-15,6,-4,1
1527709352664614,1,-3,-4,0,35,2,-1,-1
1527709352673608,2,1,1,0,-37,-2,8,-1
1527709352673608,-2,0,0,1,36,1,-3,0
1527709352687603,-2,-3,0,-4,-28,-5,-3,0
1527709352687603,1,1,-3,-5,-1,2,2,-2
1527709352694596,0,0,0,2,27,1,2,-1
1527709352694596,2,3,-1,0,2,-5,-3,0
1527709352710585,-1,-3,0,5,-8,-1,1,0
1527709352710585,-1,2,2,-5,-14,-3,-1,-1
1527709352712584,-2,-3,-1,1,10,-5,-3,-1
1527709352712584,0,-3,-6,-3,11,-3,6,4
1527709352724577,2,4,4,13,24,-11,2,-8
1527709352724577,-3,-3,-4,-1,-10,-4,-3,-2
1527709352733571,0,2,0,0,-1,4,-6,-3
1527709352733571,-2,-2,1,3,-7,2,-1,0
1527709352748562,-2,-1,-1,2,21,7,-1,-1
1527709352748562,1,1,0,-3,-7,-2,4,1
1527709352750562,-2,-3,-1,1,-21,-13,-5,0
1527709352750562,-1,0,-5,-2,7,1,0,-3
1527709352771547,0,-2,-3,0,6,-1,0,0
1527709352771547,-1,-3,0,6,5,-3,-3,2
1527709352772548,3,6,0,-7,-12,-3,8,-4
1527709352772548,0,-4,-1,0,-10,-1,-5,1
1527709352784541,0,-2,-4,-3,-7,-4,-3,-3
1527709352784541,1,-2,0,0,1,3,0,-1
1527709352793535,-2,-2,2,1,-4,3,-1,1
1527709352793535,-3,3,1,0,1,4,3,-2
1527709352808525,2,-1,-3,-6,-3,5,4,-2
1527709352808525,-2,3,3,4,10,6,0,0
1527709352810523,-2,-1,-3,-1,0,0,-6,-1
1527709352810523,-1,-3,2,2,-5,0,-2,2
1527709352831510,-1,3,0,-3,-9,-1,2,-2
1527709352831510,-5,-6,-4,6,8,-4,-9,2
1527709352832511,1,-1,-2,3,1,6,0,-1
1527709352832511,1,3,0,-4,-2,-1,1,-2
1527709352844504,-2,-3,0,-2,6,8,-3,0
1527709352844504,3,2,0,-1,3,-4,4,1
1527709352853497,-3,-2,1,2,-4,-4,-2,1
1527709352853497,-2,-1,-4,-7,2,-6,-1,-6
1527709352868488,0,-3,-1,-1,6,1,3,0
1527709352868488,1,-2,1,0,-6,1,-1,0
1527709352870488,2,3,2,-2,1,5,3,0
1527709352870488,-1,0,-1,0,7,1,-5,1
1527709352891474,-2,-1,-4,-3,25,-3,0,-1
1527709352891474,1,0,2,3,-29,-5,2,-3
1527709352892473,0,-1,5,2,-15,4,-5,6
1527709352892473,0,0,0,2,0,-2,4,1
1527709352904465,1,-2,-1,0,-4,4,0,-2
1527709352904465,3,5,0,-2,15,1,2,0
1527709352913459,-1,-3,-2,4,9,3,4,0
1527709352913459,-2,-4,-2,-2,-4,-2,-5,4
1527709352927450,-4,5,-4,-2,-20,-1,0,-3
1527709352927450,-3,-2,-2,0,2,0,-10,1
1527709352934447,-2,-1,1,-1,2,5,-2,2
1527709352934447,4,5,7,-3,6,3,5,1
1527709352951436,1,-2,-2,2,18,-8,4,0
1527709352951436,-2,-3,-2,-5,-23,-6,4,-3
1527709352952436,-2,-5,-6,-1,-11,2,-3,-5
1527709352952436,-1,1,-1,3,6,7,1,-1
1527709352964428,0,3,6,0,-1,0,0,3
1527709352964428,1,-1,-1,3,4,1,1,-1
1527709352973422,1,5,2,-3,4,-8,8,-5
1527709352973422,-3,-5,7,2,-1,-4,-7,1
1527709352988413,1,-1,-16,-2,-5,-3,-6,0
1527709352988413,-1,3,7,-2,3,1,3,-1
1527709352994409,-3,-7,1,-3,5,-2,-3,4
1527709352994409,0,-3,-16,0,-12,-1,3,-2
1527709353011399,-3,0,11,1,-2,6,-4,2
1527709353011399,0,1,3,0,7,7,-3,-1
1527709353012398,2,-2,4,0,6,0,0,0
1527709353012398,-3,-1,-17,-4,-4,3,-2,0
1527709353033386,3,1,1,-4,-7,-3,5,-3
1527709353033386,-1,-1,-1,-1,12,2,-2,1
1527709353035385,-2,-5,-1,1,2,0,-4,-1
1527709353035385,1,2,7,-5,-2,0,2,-2
1527709353048376,-2,-4,-5,0,-1,3,-6,-1
1527709353048376,-3,14,-4,-2,-7,-3,1,-1
1527709353054372,0,-4,-3,-1,11,-1,2,1
1527709353054372,1,-2,4,2,1,-6,1,-3
1527709353071362,-1,4,2,0,-5,2,2,5
1527709353071362,-1,-14,-1,-2,3,0,4,0
1527709353072363,3,7,-3,-2,-10,-5,8,-7
1527709353072363,0,-3,1,0,1,1,-2,3
1527709353093348,-3,-4,4,5,4,0,0,1
1527709353093348,2,1,-1,-4,-10,-4,1,-1
1527709353095347,-4,0,-3,3,3,-1,-7,-2
1527709353095347,0,-1,-1,2,0,-2,-1,0
1527709353108337,0,-4,-1,-1,-2,-5,0,-2
1527709353108337,0,-1,-3,-3,4,2,-5,-3
1527709353114334,1,4,-1,-1,0,-2,0,0
1527709353114334,-3,-4,3,5,6,4,-6,0
1527709353131327,1,4,-3,-5,-10,-2,4,-3
1527709353131327,-2,-7,-2,2,1,-3,-1,6
1527709353132326,-2,-3,0,-1,2,3,-3,2
1527709353132326,3,3,3,-3,-9,-6,3,-2
1527709353153311,-1,-1,-2,1,5,0,-2,-2
1527709353153311,2,2,1,0,-1,-1,1,0
1527709353155309,0,3,-4,-1,-4,-3,2,-1
1527709353155309,0,3,1,2,6,6,-4,1
1527709353168301,-1,1,0,-1,-6,-2,-2,0
1527709353168301,2,-4,-2,0,6,1,-3,-2
1527709353174297,-2,5,3,-1,-1,1,1,-1
1527709353174297,0,-3,-1,0,4,2,-2,-2
1527709353191287,-1,-6,-1,0,6,-1,0,1
1527709353191287,0,3,1,-1,-10,-9,2,-3
1527709353192286,-1,-3,0,3,8,4,-5,2
1527709353192286,-1,-2,-3,-3,-5,-3,2,0
1527709353213273,2,-2,1,-5,-2,-1,1,-2
1527709353213273,0,-2,-3,3,4,8,-2,0
1527709353215272,1,-1,-1,0,-3,-1,0,-1
1527709353215272,2,-1,-3,-2,-2,4,-1,-3
1527709353227265,3,5,1,0,0,-4,0,-2
1527709353227265,-2,-2,-2,1,0,4,-3,3
1527709353236260,2,-2,-2,-1,4,-4,-3,2
1527709353236260,-1,2,-1,-2,-9,-8,4,-3
1527709353251249,-2,-3,0,1,7,1,-4,2
1527709353251249,-1,-1,0,0,0,-1,1,0
1527709353252253,0,-1,-1,-2,-4,-5,4,-3
1527709353252253,-3,-2,-1,-2,3,0,-3,2
1527709353273239,1,-3,-2,0,-1,-4,-2,-1
1527709353273239,-3,-1,1,-1,2,1,-3,2
1527709353275235,-2,5,-1,-3,3,-1,2,0
1527709353275235,-3,-5,-2,0,4,-2,0,-1
1527709353288229,-2,0,-1,1,-1,4,-6,0
1527709353288229,1,5,1,-1,-9,-6,6,-4
1527709353295223,0,-5,-2,1,2,2,-3,0
1527709353295223,-2,0,3,0,1,0,1,-2
1527709353311211,0,-1,-1,1,-3,7,4,0
1527709353311211,0,-3,0,0,2,-1,-4,0
1527709353313211,0,1,-1,-2,-6,-3,2,-1
1527709353313211,2,0,-2,2,1,0,-2,0
1527709353333200,0,2,-1,3,-2,-3,6,-1
1527709353333200,-3,-5,-3,-3,2,1,1,2
1527709353335197,-1,-5,-3,0,3,-1,-4,-3
1527709353335197,2,4,0,-2,-10,-2,5,-1
1527709353348192,-6,-3,-1,1,3,-2,-2,3
1527709353348192,0,0,0,-1,2,1,-2,-1
1527709353355185,1,0,3,-1,-4,3,2,2
1527709353355185,-2,0,0,1,4,1,-4,0
1527709353371176,-1,-2,1,-1,-3,-2,0,-2
1527709353371176,-2,-1,-2,0,-3,-5,0,1
1527709353373173,1,4,0,0,0,3,1,-2
1527709353373173,0,0,0,-3,2,-3,-3,0
1527709353393161,-1,-5,-3,1,4,-2,0,1
1527709353393161,3,4,2,-4,-7,-2,3,-6
1527709353395160,-1,-5,-5,0,6,-1,-4,1
1527709353395160,-1,1,0,3,-1,4,1,-1
1527709353408152,-1,1,-1,-2,-1,-2,-1,-3
1527709353408152,0,-2,0,2,4,6,-3,0
1527709353415148,1,-1,-3,-3,-3,-4,3,1
1527709353415148,-2,-4,-1,-3,-3,0,-2,0
1527709353431138,2,4,1,0,-2,0,3,-1
1527709353431138,-2,-2,-2,1,-1,-1,-2,3
1527709353433137,0,0,-1,-1,0,-2,-2,2
1527709353433137,0,4,3,-5,-8,-2,0,-4
1527709353453123,-1,-3,-1,-2,4,2,-3,1
1527709353453123,-2,-3,-1,1,3,2,-3,-3
1527709353455124,-2,-1,1,-1,-5,-5,-1,-5
1527709353455124,0,-2,0,0,4,2,3,2
1527709353467115,1,0,-2,-3,-2,-1,-4,-2
1527709353467115,2,0,-5,-3,0,-4,1,0
1527709353476110,-3,-1,1,3,1,4,0,-3
1527709353476110,1,-4,-2,0,-3,1,-3,0
1527709353491101,-2,-27,-2,2,2,2,-1,2
1527709353491101,1,15,9,-2,-9,2,3,-3
1527709353493100,0,-23,-11,0,1,-2,-1,-1
1527709353493100,0,25,10,5,9,-1,-2,3
1527709353513086,2,-3,4,-2,-9,-5,0,-2
1527709353513086,-5,-1,-2,0,0,-2,-3,-3
1527709353515086,2,-3,0,-1,-1,-7,2,-4
1527709353515086,-1,-10,-8,-2,-3,0,0,1
1527709353527079,1,11,2,1,-1,1,-3,-2
1527709353527079,0,-8,0,0,0,-2,-1,2
1527709353544068,-1,10,5,0,4,1,-2,-2
1527709353544068,0,-2,-2,-4,-9,-4,7,-2
1527709353551066,-2,6,1,1,2,-2,-3,5
1527709353551066,1,-5,-3,-1,1,2,1,0
1527709353553062,-1,3,1,-2,-7,-1,1,3
1527709353553062,2,-2,0,-1,5,0,-1,2
1527709353574048,-1,1,1,-4,-2,-4,-1,-4
1527709353574048,-1,-4,-3,0,1,-1,-1,-1
1527709353575049,0,9,0,1,4,2,0,2
1527709353575049,-3,-5,2,3,-2,-2,-3,-3
1527709353587042,0,2,-2,-1,2,2,3,1
1527709353587042,1,3,0,-3,-5,-6,0,-2
1527709353596034,-5,-1,0,3,6,4,-4,3
1527709353596034,0,-7,-4,0,1,0,-1,2
1527709353611026,0,2,0,-2,-7,-2,5,-2
1527709353611026,1,0,0,6,5,-3,-1,0
1527709353613025,-1,0,0,-4,-2,3,2,-1
1527709353613025,-1,-3,-3,1,2,-1,1,-1
1527709353634011,1,1,1,2,2,2,-1,2
1527709353634011,-1,-2,-2,1,-1,-2,0,0
1527709353635011,-2,-3,-3,-1,0,-3,-4,-2
1527709353635011,2,4,2,0,-5,-2,7,-2
1527709353647003,0,-2,0,-2,3,-1,-3,0
1527709353647003,0,-1,-3,-2,6,4,-2,0
1527709353655998,-1,1,0,-1,-8,-8,2,-1
1527709353655998,-3,-2,0,-4,2,-1,-5,-1
1527709353670989,-3,0,-1,0,-2,-1,0,-1
1527709353670989,0,-2,-3,1,-1,-1,1,0
1527709353672987,1,2,0,0,3,4,-1,-2
1527709353672987,2,-3,-1,0,-3,1,-4,1
1527709353693974,-2,0,-1,1,4,-4,0,-1
1527709353693974,1,4,4,-1,-5,1,3,1
1527709353694974,-2,0,-1,1,1,3,-1,2
1527709353694974,2,0,-2,4,5,3,-1,-1
1527709353706966,4,3,0,-2,-5,1,1,-7
1527709353706966,0,-2,-2,3,3,-2,0,3
1527709353715960,0,-2,-1,1,-5,-4,1,-2
1527709353715960,-1,-3,1,0,2,-1,2,-4
1527709353730952,2,2,2,-3,5,3,-1,0
1527709353730952,-1,-2,-3,-2,-6,-1,-1,1
1527709353732950,1,-5,-1,1,2,-2,-1,3
1527709353732950,-1,6,-1,-2,-6,0,2,-4
1527709353753937,-7,-6,-4,1,4,2,1,0
1527709353753937,-2,-1,0,-1,4,0,-3,-1
1527709353754936,3,4,-2,-3,-6,-5,4,0
1527709353754936,-1,-4,-1,0,8,2,-2,5
1527709353766929,1,3,1,-2,-3,2,-1,-1
1527709353766929,-2,0,-2,-1,-2,-3,-2,0
1527709353775922,-3,2,4,-2,1,0,-2,0
1527709353775922,-1,-5,-4,-1,-2,-7,2,-4
1527709353790914,1,-1,-2,0,-3,0,-2,2
1527709353790914,-1,3,5,-2,-4,0,5,-5
1527709353792913,1,-3,-4,0,5,3,-2,1
1527709353792913,-1,-4,0,1,3,2,-6,3
1527709353820895,2,1,1,-3,-7,-4,4,0
1527709353820895,1,-4,0,1,7,2,-3,0
1527709353822893,-2,1,2,1,0,-2,3,1
1527709353822893,-1,0,0,-3,-5,-1,1,-3
1527709353826893,-2,-2,-3,4,2,-4,-5,2
1527709353826893,0,0,-2,-2,-2,0,-1,-2
1527709353835886,-1,-1,1,1,2,2,-3,-2
1527709353835886,2,2,1,-2,-5,-2,4,-2
1527709353850880,-3,-5,-4,-2,1,1,-2,0
1527709353850880,-1,-5,-7,-1,1,2,-1,2
1527709353852875,0,2,3,0,-9,-7,4,-3
1527709353852875,-2,-2,-3,0,5,-3,-1,3
1527709353873862,2,0,0,1,-1,1,1,2
1527709353873862,1,1,-1,-2,-5,-3,0,-1
1527709353874865,-1,-3,-3,2,0,-2,-4,-2
1527709353874865,-1,0,1,-4,-5,-6,0,0
1527709353886854,-1,-2,-3,6,0,4,-1,-2
1527709353886854,3,4,1,-1,-2,-2,3,-2
1527709353895851,-1,-4,1,-2,1,-1,-4,2
1527709353895851,0,-2,-1,-1,3,-1,-2,-2
1527709353910840,1,4,-1,-5,-13,-4,6,-4
1527709353910840,-3,-2,3,-1,3,0,-4,0
1527709353912838,0,-1,-1,-2,-1,-1,0,-2
1527709353912838,-1,2,-1,1,-3,1,-2,1
1527709353933826,0,-3,0,-2,2,-1,0,0
1527709353933826,0,-1,-4,-1,-3,1,0,-1
1527709353934826,2,-2,-4,0,1,-2,-4,0
1527709353934826,-2,5,2,2,-2,5,4,-1
1527709353946819,-3,-2,1,1,7,-5,-4,3
1527709353946819,0,-3,-3,0,0,-4,-2,2
1527709353955811,-2,3,2,-6,-7,-1,5,-4
1527709353955811,-1,-4,-3,5,0,2,-5,3
1527709353970804,-1,2,0,-1,1,5,-1,0
1527709353970804,-1,0,1,1,3,3,0,0
1527709353976799,0,1,-3,0,9,5,2,1
1527709353976799,0,-4,0,-1,-1,1,-1,-3
1527709353993789,-2,-4,-1,0,0,-2,-1,1
1527709353993789,0,3,-2,-5,1,-2,1,-3
1527709353994788,1,-2,-2,3,2,-2,-1,-1
1527709353994788,-3,0,0,-2,5,0,-6,1
1527709354015775,2,5,2,-3,-8,-1,4,-2
1527709354015775,-1,-1,-1,1,5,0,-3,1
1527709354017773,-2,0,-1,1,1,1,0,3
1527709354017773,1,-1,-1,1,-3,-1,4,-3
1527709354030765,-1,0,1,-1,1,1,-5,-2
1527709354030765,-3,-1,1,-2,-2,-1,-1,-2
1527709354032764,-4,-2,0,-2,0,0,-5,1
1527709354032764,0,3,1,-2,1,2,2,0
1527709354053752,-1,0,-3,1,-1,-2,0,0
1527709354053752,-2,-3,-1,3,1,5,-3,0
1527709354054750,2,5,2,-1,-10,-4,2,-3
1527709354054750,1,-3,0,2,4,3,-2,3
1527709354075737,0,-3,-2,3,2,2,-3,0
1527709354075737,1,0,-1,-1,-5,-9,2,-2
1527709354077736,-2,-1,1,0,5,4,-4,1
1527709354077736,-3,-1,0,-1,1,0,-1,-1
1527709354098725,-1,-3,-3,1,3,2,3,0
1527709354098725,1,2,0,-1,0,3,4,-1
1527709354099722,-1,-2,-2,-1,-1,-2,-3,-1
1527709354099722,0,-3,-2,0,5,0,-2,0
1527709354113712,2,3,4,-4,-7,-3,3,-4
1527709354113712,-4,-2,-2,0,8,-2,-4,0
1527709354114712,-2,0,0,2,3,1,-2,3
1527709354114712,1,2,0,-4,-7,-10,0,-4
1527709354135700,-1,0,-2,-1,7,-4,-4,4
1527709354135700,-1,-3,3,0,-3,-1,1,-1
1527709354137698,-2,-2,-4,-3,-1,2,1,1
1527709354137698,0,2,0,-3,1,0,1,-4
1527709354150690,0,-5,-1,0,2,2,-2,0
1527709354150690,-3,-3,-2,0,1,1,-2,2
1527709354157686,1,0,1,-4,-9,-3,6,-1
1527709354157686,-4,-1,0,1,6,-1,-3,4
1527709354173677,0,3,-2,2,4,-1,-2,-1
1527709354173677,0,0,2,0,-6,-6,0,1
1527709354175674,1,0,1,1,7,2,-3,-5
1527709354175674,0,2,-1,0,-7,-3,-1,0
1527709354196661,-3,0,-1,0,1,0,1,-3
1527709354196661,2,3,2,0,4,0,0,0
1527709354197662,-1,-3,-3,-1,-4,-3,0,2
1527709354197662,-2,-3,0,0,1,3,-6,1
1527709354210653,1,3,0,-4,-11,-4,2,-2
1527709354210653,-2,-4,-1,-1,0,-2,-3,1
1527709354217649,2,-5,-1,-2,3,0,0,-1
1527709354217649,1,-1,-1,-2,-5,-4,6,-1
1527709354233639,-1,-2,-1,1,0,2,-2,1
1527709354233639,1,2,0,0,-6,0,3,1
1527709354235638,1,-1,1,0,1,-4,-1,0
1527709354235638,-1,2,-1,2,2,-1,2,-1
1527709354256624,-2,-3,-2,-3,-3,-6,-4,1
1527709354256624,-3,-1,-1,-2,-1,-4,1,0
1527709354257623,1,6,2,1,-8,-5,3,-3
1527709354257623,-1,-2,-1,2,1,4,-4,1
1527709354270615,0,-1,-1,2,1,0,1,1
1527709354270615,1,-2,-3,-5,-6,-2,3,-2
1527709354277611,-1,-3,-1,-1,5,-3,-5,2
1527709354277611,2,-1,2,-3,-4,-2,2,-5
1527709354293602,-1,-2,-1,-1,2,3,1,-1
1527709354293602,0,1,0,1,3,2,-4,-1
1527709354295600,-2,2,-3,-1,0,-3,0,0
1527709354295600,-2,-2,-1,0,-1,-1,-1,0
1527709354315587,1,3,5,-1,-5,0,5,0
1527709354315587,-2,0,-5,-1,1,2,-4,0
1527709354317586,-3,-5,-2,2,4,4,-1,2
1527709354317586,1,3,0,-2,-7,-4,0,1
1527709354330578,-2,-1,-2,2,5,0,-3,-2
1527709354330578,0,-1,1,0,-3,0,-2,-1
1527709354337574,1,-1,-2,1,-3,-2,0,0
1527709354337574,0,2,1,-2,3,5,-1,-2
1527709354353567,-2,-2,1,-2,-1,1,0,3
1527709354353567,0,-3,-2,0,0,1,1,1
1527709354355563,3,5,0,-6,-5,1,4,-4
1527709354355563,-1,-8,-3,5,5,1,-3,1
1527709354376549,-1,-2,1,-1,3,4,-1,0
1527709354376549,1,3,1,-1,-5,1,6,-5
1527709354377549,-2,-4,0,1,6,3,-2,1
1527709354377549,2,0,-4,-1,-3,-2,0,-2
1527709354390541,-2,-2,-1,-2,-2,-4,2,-1
1527709354390541,-1,3,1,-1,3,4,-3,0
1527709354397536,1,2,0,0,-5,-3,0,-1
1527709354397536,-1,1,-2,1,2,-3,-4,-1
1527709354413526,1,3,3,2,-4,-2,3,-4
1527709354413526,0,-4,-3,0,2,0,-3,2
1527709354415526,-1,-3,-1,1,4,-1,-2,1
1527709354415526,-1,1,-1,-1,-8,-5,4,-3
1527709354436513,1,-1,-4,-1,4,2,-5,1
1527709354436513,-1,0,-1,-2,-1,-4,5,-2
1527709354437511,-2,0,1,1,-5,1,-2,0
1527709354437511,-1,-2,2,-1,3,1,0,3
1527709354450504,0,-3,-4,-3,-6,2,-1,-4
1527709354450504,-2,-2,0,1,4,-1,-2,1
1527709354457499,3,7,3,-1,-4,1,5,-3
1527709354457499,-2,-6,1,2,6,2,-5,3
1527709354473490,-1,-3,-1,-2,1,-2,-1,2
1527709354473490,1,4,2,-3,-8,-5,5,-4
1527709354475488,-4,-3,-4,0,7,-3,-4,2
1527709354475488,-1,1,0,0,-1,0,1,0
1527709354496475,-1,2,2,0,-4,-1,2,1
1527709354496475,0,-4,-4,1,5,0,0,1
1527709354497474,3,0,0,-2,1,-1,0,2
1527709354497474,-13,-7,-4,0,5,5,-6,-14
1527709354509469,1,3,2,-1,2,-1,0,0
1527709354509469,-6,-4,-3,2,-1,2,-6,8
1527709354518462,-6,-4,-1,1,3,3,-3,-2
1527709354518462,6,3,0,-7,-10,-5,3,1
1527709354533452,-2,-4,-4,0,4,-3,-4,-4
1527709354533452,-14,1,1,-1,2,-1,-3,-2
1527709354535453,8,-1,0,-2,0,2,2,3
1527709354535453,0,0,-1,-2,-1,0,-1,3
1527709354556439,-5,1,0,-2,-6,0,0,-2
1527709354556439,6,-1,-1,0,3,-1,-1,0
1527709354557439,0,1,0,-3,-2,0,2,-4
1527709354557439,-1,-1,2,0,3,-4,-1,1
1527709354578424,-2,-3,-3,2,3,2,-3,-2
1527709354578424,2,3,4,-5,-12,-6,4,-5
1527709354579424,-3,-2,-1,1,2,-1,-4,2
1527709354579424,2,2,-1,0,0,2,-1,-4
1527709354592416,4,0,-1,2,-2,-4,0,-2
1527709354592416,1,0,-1,-2,4,3,-1,1
1527709354593415,-3,-1,-1,-3,-5,-3,-1,-2
1527709354593415,1,-3,-1,-3,0,-1,1,0
1527709354615401,1,3,0,-3,-3,1,2,1
1527709354615401,-1,-2,1,2,-2,-3,-2,-1
1527709354616401,-2,-3,-1,0,2,-4,-2,1
1527709354616401,3,5,0,-2,-7,-3,4,-1
1527709354639387,2,-6,-2,-1,0,-2,-2,2
1527709354639387,-8,-1,-1,3,2,0,-5,-4
1527709354639387,-1,1,-1,-1,-2,-5,3,-3
1527709354639387,2,-3,-2,1,3,0,-1,5
1527709354654377,-2,-2,-2,-2,0,3,-1,-1
1527709354654377,6,0,-1,-2,-3,0,-2,1
1527709354655378,0,5,4,2,3,1,2,-4
1527709354655378,-4,-3,-4,1,-3,-2,0,0
1527709354675364,-1,-2,0,1,0,-3,-3,0
1527709354675364,4,3,1,-2,-10,-1,5,-4
1527709354676364,-4,-4,-1,2,0,1,-5,1
1527709354676364,6,1,2,2,-1,4,0,6
1527709354698350,-12,1,2,0,-4,-6,0,-7
1527709354698350,0,-3,-1,-1,6,0,-2,2
1527709354699350,-4,1,-1,0,-4,1,-1,-3
1527709354699350,1,-3,-2,-1,-4,1,-3,1
1527709354713341,3,3,2,-4,2,-1,1,1
1527709354713341,-2,-3,0,1,0,-1,-1,1
1527709354713341,0,-4,-2,3,1,-2,-4,-2
1527709354713341,0,4,3,1,-7,-2,4,-4
1527709354735326,0,-3,-2,1,4,1,0,2
1527709354735326,-1,2,-1,-1,1,2,0,2
1527709354736326,3,1,-1,-3,-5,-7,0,1
1527709354736326,-3,-1,-3,2,3,3,-5,-1
1527709354758314,3,2,1,0,-5,-2,0,0
1527709354758314,2,-2,-3,-1,0,2,1,-2
1527709354759314,1,1,1,-3,-6,-2,1,2
1527709354759314,-2,-1,-2,-1,3,-5,-3,-1
1527709354773302,-2,-4,-4,1,7,-1,-2,-1
1527709354773302,-1,4,5,-1,-6,-1,2,-4
1527709354773302,-3,-4,1,1,5,0,-3,1
1527709354773302,0,2,-1,-2,1,-1,-2,-3
1527709354795290,2,3,0,-2,-7,-2,4,0
1527709354795290,-1,-1,-1,1,7,0,-4,0
1527709354796289,3,-1,2,-4,-3,-5,0,-3
1527709354796289,-9,-6,-2,1,4,1,1,2
1527709354818275,3,2,0,2,4,1,-1,-1
1527709354818275,-3,-2,-1,1,-2,-3,-1,2
1527709354819274,1,0,-1,-1,-2,6,-4,-1
1527709354819274,4,6,5,-2,-5,-2,3,-4
1527709354833266,-1,-4,-5,-1,3,-3,-2,0
1527709354833266,0,-2,2,3,1,2,0,-1
1527709354833266,1,-1,-2,-5,-5,0,-1,0
1527709354833266,1,-2,-1,-3,-1,2,0,2
1527709354855252,-1,1,-3,-3,-2,-1,-1,-2
1527709354855252,2,-1,-4,-1,-1,-1,-2,-1
1527709354856251,2,1,0,-2,4,1,1,-3
1527709354856251,-1,-3,1,-1,-1,1,0,2
1527709354878238,-2,-5,2,-2,2,0,-3,3
1527709354878238,2,5,-1,-1,-9,-7,3,-3
1527709354879237,-4,-3,-4,2,4,0,-2,2
1527709354879237,-3,-2,-2,0,4,-2,-2,-2
1527709354893230,3,1,1,-1,-12,0,3,-2
1527709354893230,0,-1,2,-1,2,1,-5,4
1527709354893230,-1,1,0,-1,-3,-1,2,-2
1527709354893230,-1,-2,-4,1,-2,-3,-2,-3
1527709354915215,0,2,-1,0,3,6,1,5
1527709354915215,0,-2,-2,-2,3,-2,1,-5
1527709354916215,-2,-2,-2,0,-1,-2,0,0
1527709354916215,4,5,0,-3,-7,1,3,-3
1527709354938201,-5,-3,2,3,2,-3,-1,0
1527709354938201,0,0,-1,2,2,6,-1,3
1527709354939199,1,3,2,-3,-8,-5,2,-2
1527709354939199,-1,-1,-1,2,5,1,-1,4
1527709354953191,5,0,-1,2,-4,2,0,-2
1527709354953191,-2,-2,0,-1,1,-4,-3,-4
1527709354953191,-2,2,-1,0,1,-1,0,-2
1527709354953191,1,-2,-2,-1,0,-4,-3,1
1527709354975179,-3,-3,-3,-1,-1,0,-2,0
1527709354975179,3,4,2,-2,-8,0,4,-6
1527709354976177,1,-4,0,1,4,-4,-2,-1
1527709354976177,-4,-3,2,-1,2,0,-1,-1
1527709354998163,2,4,4,-2,-4,-7,1,-2
1527709354998163,-4,-1,-1,-1,4,0,-3,3
1527709354999162,0,-2,-1,2,-8,-4,1,0
1527709354999162,1,-1,-1,-2,-8,-4,2,-2
1527709355013155,-2,-1,-2,1,0,3,-3,1
1527709355013155,0,-4,-3,-2,1,-7,-1,-3
1527709355014153,-1,0,-1,1,-3,4,-2,1
1527709355014153,0,6,2,-3,-1,3,5,-6
1527709355035140,-4,-3,-4,-1,2,0,-2,-3
1527709355035140,1,0,1,1,1,-2,2,2
1527709355036140,0,0,-2,-1,-8,-1,4,-2
1527709355036140,-2,-3,-2,0,3,1,-5,1
1527709355058126,1,-1,-1,0,-3,2,0,0
1527709355058126,1,0,-3,-1,-6,-3,0,-1
1527709355059125,-3,-1,0,0,8,1,-2,-1
1527709355059125,-2,-2,0,1,-8,-1,2,0
1527709355073116,1,-1,1,0,7,2,-1,0
1527709355073116,2,2,2,-2,-5,3,1,-5
1527709355074116,1,-4,-3,3,3,7,-5,2
1527709355074116,-2,-1,1,2,7,3,-3,1
1527709355095103,0,2,0,-4,-12,-6,3,-5
1527709355095103,-2,-3,0,3,6,1,-1,4
1527709355096102,3,3,2,-1,2,9,0,-1
1527709355096102,-1,1,-2,-3,-4,-4,2,-1
1527709355119088,-1,-2,0,1,6,-3,-3,2
1527709355119088,-3,-2,-3,0,-4,-2,0,0
1527709355119088,-3,-1,-1,0,5,-1,-4,2
1527709355119088,3,3,0,-2,-2,2,1,-3
1527709355133079,1,-4,-2,3,7,1,-4,-1
1527709355133079,-1,0,0,2,8,1,-4,-2
1527709355134079,-2,4,2,-4,-9,-8,8,-3
1527709355134079,0,-2,1,1,6,1,-6,2
1527709355155068,-4,-1,1,-4,0,-3,1,1
1527709355155068,0,-1,-1,-2,-4,2,-1,-1
1527709355156065,0,2,-1,-1,7,4,-3,1
1527709355156065,-1,-2,1,-1,-1,-4,-1,-4
1527709355179050,1,-3,0,-1,-2,1,-1,-1
1527709355179050,1,2,2,-1,1,5,3,2
1527709355179050,-2,-4,-4,-1,2,-3,1,1
1527709355179050,0,-3,-2,1,5,0,-5,0
1527709355193043,3,3,5,1,-8,2,6,0
1527709355193043,-2,-2,-2,0,3,-3,-5,2
1527709355194042,1,-1,-1,1,3,4,2,-1
1527709355194042,0,1,-1,0,-7,-4,1,-2
1527709355215029,-2,-1,-2,1,3,-4,-1,5
1527709355215029,2,0,-1,-4,-1,-5,-2,0
1527709355216029,1,-1,-2,1,-1,-3,-2,1
1527709355216029,-1,1,0,0,-2,1,1,1
1527709355239014,-3,0,0,-1,3,-2,-5,-1
1527709355239014,-1,-3,-2,-1,-1,-6,-3,2
1527709355239014,4,2,1,-3,-7,-2,2,-5
1527709355239014,-1,-6,-3,1,3,2,-3,0
1527709355253005,2,-2,-5,0,5,6,-2,2
1527709355253005,-1,1,-1,2,-4,0,1,-1
1527709355254011,-3,0,1,-2,5,0,-3,3
1527709355254011,2,1,-1,-1,-3,0,2,-2
1527709355274992,-2,3,2,1,-1,0,-1,-1
1527709355274992,1,5,2,1,2,2,1,-1
1527709355275990,-7,-6,-6,-3,-2,-4,-2,0
1527709355275990,-2,0,-4,0,4,4,-2,2
1527709355298978,1,3,-2,-4,-11,-5,6,-5
1527709355298978,-3,-4,-1,-1,5,3,-2,3
1527709355298978,3,0,2,4,0,4,0,-2
1527709355298978,-1,1,1,-2,-7,-5,3,1
1527709355312967,-3,-2,-1,-2,6,-1,-2,1
1527709355312967,-1,-1,0,0,-2,1,-2,-3
1527709355313967,3,2,-1,0,-4,-4,3,1
1527709355313967,1,3,0,0,2,3,-1,0
1527709355334954,-1,-4,-2,0,-3,-2,3,-2
1527709355334954,-1,-3,-1,2,0,-1,-4,7
1527709355335953,0,6,0,-3,-6,-2,5,-5
1527709355335953,0,-5,1,2,6,-1,-6,2
1527709355358940,-1,-1,-4,-3,1,-3,-2,0
1527709355358940,0,-1,-2,-4,-6,-3,2,-1
1527709355358940,0,-5,-1,3,6,0,-4,2
1527709355358940,-3,0,0,-1,-4,-4,2,0
1527709355372931,2,-3,0,1,-3,-2,0,-2
1527709355372931,0,1,-1,-1,-1,1,1,-3
1527709355373930,-2,-4,-1,-3,-2,0,-7,0
1527709355373930,4,-2,1,-1,1,1,-1,-1
1527709355395916,2,3,1,-3,-12,-3,4,-2
1527709355395916,-4,-3,-1,0,4,0,-3,-5
1527709355395916,5,2,-1,-2,3,2,0,-1
1527709355395916,0,1,-1,-2,-9,-6,2,0
1527709355418908,4,4,0,1,0,3,-1,4
1527709355418908,0,0,-2,1,0,-6,2,-7
1527709355418908,19,2,0,0,-6,0,1,2
1527709355418908,4,2,0,0,2,2,3,0
1527709355432895,2,-3,-4,-3,0,-2,-2,0
1527709355432895,-12,-1,1,3,0,-2,0,-1
1527709355433892,-8,3,3,0,-3,-4,3,-1
1527709355433892,-2,-4,-3,0,5,0,-2,1
1527709355455879,-2,-2,-1,-1,4,-2,-4,-1
1527709355455879,7,0,0,0,-6,-5,4,-1
1527709355455879,-9,-6,-3,2,4,2,-2,0
1527709355455879,1,0,0,-1,-3,-3,0,-3
1527709355485860,-7,-2,1,0,4,-3,0,-1
1527709355485860,2,1,-1,-4,-3,2,0,2
1527709355486860,-3,-3,3,0,0,1,-3,-1
1527709355486860,-6,0,-4,2,2,0,-2,3
1527709355491856,3,5,3,0,-3,0,4,-3
1527709355491856,-1,-3,1,0,-1,1,-2,1
1527709355500850,0,-1,-1,-1,3,-1,-3,1
1527709355500850,2,0,1,0,-5,-6,2,-4
1527709355515842,-2,-4,-1,0,4,2,-4,-6
1527709355515842,12,0,-2,-1,-7,-3,3,-2
1527709355515842,-11,-4,-2,-1,-1,-1,-1,-1
1527709355515842,-3,-1,1,-3,2,4,-1,1
1527709355538830,3,0,0,1,0,2,-1,1
1527709355538830,2,0,-1,1,3,7,-1,5
1527709355539825,7,7,3,0,-8,-5,5,-5
1527709355539825,-1,-5,-2,1,1,1,0,1
1527709355551819,2,-2,1,0,2,2,-1,2
1527709355551819,-2,-2,-1,-1,-1,2,-1,0
1527709355560814,2,0,-3,-3,2,2,-7,4
1527709355560814,0,1,1,-1,1,2,4,-4
1527709355575804,-6,-2,1,1,-5,-4,-1,0
1527709355575804,1,2,3,0,7,3,-2,-1
1527709355575804,-3,-3,-2,0,-1,2,1,-1
1527709355575804,-1,0,-2,0,1,0,-2,2
1527709355598790,1,2,0,-4,-7,-5,5,-5
1527709355598790,-2,-5,-5,1,6,2,-4,-2
1527709355599790,0,-1,0,1,3,2,-2,0
1527709355599790,-2,2,-1,0,-5,-1,1,-4
1527709355611782,0,-3,-1,1,0,6,-6,4
1527709355611782,0,-2,2,0,1,1,-1,1
1527709355620775,-6,-1,1,-1,-1,-4,2,0
1527709355620775,2,-1,-2,-2,3,1,-3,1
1527709355635770,-3,-1,-4,0,-3,-2,1,1
1527709355635770,-4,-1,-1,-4,4,1,-2,-4
1527709355635770,2,2,3,-1,-6,2,2,-1
1527709355635770,-1,-3,1,0,4,0,-4,2
1527709355658753,-7,-4,-4,-1,3,2,-1,-1
1527709355658753,7,4,3,0,-8,-5,3,-7
1527709355659753,-13,-6,-4,0,5,1,-3,1
1527709355659753,-2,0,0,-3,1,0,-1,-2
1527709355671744,-4,-2,2,2,-3,-1,-3,1
1527709355671744,4,1,-1,-2,-2,3,-1,3
1527709355680740,2,-1,0,0,-2,-4,-3,0
1527709355680740,0,-4,-3,2,-1,4,-3,-1
1527709355695732,7,7,2,-3,-1,1,3,-2
1527709355695732,-4,-3,-1,1,4,4,0,3
1527709355695732,0,-1,-2,-4,5,2,-2,-3
1527709355695732,4,6,1,-1,-6,-6,3,0
1527709355717716,-3,-5,2,0,7,1,-1,1
1527709355717716,1,-2,-2,0,1,3,2,-3
1527709355718714,2,-3,-1,-4,-4,-3,0,-2
1527709355718714,3,1,-2,1,3,6,-1,1
1527709355731707,-30,-7,-6,2,-3,-7,-3,-16
1527709355731707,2,0,1,-2,5,-1,-2,3
1527709355740701,3,5,2,-2,-5,-1,6,-3
1527709355740701,-5,-5,0,-1,0,-1,-1,1
1527709355763688,3,-3,-3,-1,0,0,-3,0
1527709355763688,-3,0,0,0,-8,-13,5,-3
1527709355764687,4,0,-1,0,6,1,-4,3
1527709355764687,1,-2,1,2,-3,-2,-2,-1
1527709355777680,8,2,-2,-6,-6,2,3,0
1527709355777680,-4,-1,-1,-1,1,-4,-4,-1
1527709355778678,2,-2,-3,0,-6,-1,2,0
1527709355778678,-4,-1,0,-1,0,-1,0,2
1527709355792676,6,5,3,0,-1,4,2,1
1527709355792676,-5,-2,-3,-1,-1,-2,-1,1
1527709355800664,-4,-2,-2,3,4,5,-2,1
1527709355800664,1,1,1,-3,-9,-7,4,-5
1527709355815655,1,-2,-3,3,4,-2,-2,-1
1527709355815655,-2,2,-1,1,1,1,-1,0
1527709355816655,-1,-2,-2,1,0,2,0,0
1527709355816655,0,0,-1,3,1,1,-4,-3
1527709355837641,6,2,0,0,-6,1,1,3
1527709355837641,-3,0,-1,-1,-1,-4,-2,0
1527709355838640,1,1,1,-2,-1,1,2,-1
1527709355838640,-4,-5,-4,1,1,0,-5,0
1527709355852633,-2,-3,0,0,3,0,-6,2
1527709355852633,2,3,2,-4,-11,-1,2,-2
1527709355860628,-2,0,-3,0,2,4,-4,-1
1527709355860628,0,-1,1,-2,2,-2,-2,0
1527709355875619,-1,0,-1,2,1,-1,-1,-1
1527709355875619,-3,0,0,2,4,0,-3,-1
1527709355876618,2,-3,-1,0,-3,-5,0,-1
1527709355876618,3,-3,-2,0,-3,0,-2,0
1527709355897606,2,5,3,-1,-2,1,3,-2
1527709355897606,-1,-4,-2,1,-2,-5,0,3
1527709355898605,-1,-5,-2,1,2,-1,-5,1
1527709355898605,1,8,1,-2,-7,-1,7,-5
1527709355920589,0,-3,-3,-2,3,4,-4,4
1527709355920589,-1,-1,-2,-2,-4,1,-1,-3
1527709355921589,-1,-3,0,-3,-3,-4,2,0
1527709355921589,-2,-1,-1,-1,6,0,-2,0
1527709355935587,3,0,-2,-1,-3,0,3,1
1527709355935587,-1,2,1,0,-4,-1,0,-1
1527709355936581,-2,2,2,1,2,0,1,-3
1527709355936581,-1,-3,-2,-2,2,3,-2,3
1527709355957566,-1,-2,0,2,4,-3,-2,2
1527709355957566,6,3,0,-3,-6,5,1,-3
1527709355958566,-5,-1,-2,-1,3,-1,0,1
1527709355958566,-5,1,-2,-1,0,3,0,0
1527709355981551,-2,0,-4,-3,-4,-7,3,-1
1527709355981551,-1,-3,1,2,5,3,-1,1
1527709355981551,0,0,3,1,-2,2,0,-1
1527709355981551,-2,-5,-3,-1,-1,-1,-3,2
1527709355995543,-1,1,-1,1,9,7,-4,-3
1527709355995543,-4,0,2,-2,4,-3,0,0
1527709355996542,-1,0,-1,-1,8,2,0,-1
1527709355996542,4,6,3,-2,-4,2,4,-3
1527709356017530,0,-5,-3,0,6,-3,-3,1
1527709356017530,1,-4,-5,-2,7,0,-2,1
1527709356018529,0,2,0,-1,-10,-4,-1,-1
1527709356018529,-1,-2,-3,-1,2,-1,-5,-1
1527709356041514,-1,0,0,-1,-7,-2,3,0
1527709356041514,-3,-3,-1,1,0,2,-2,0
1527709356042515,0,3,2,-2,1,0,2,1
1527709356042515,-1,-3,-2,2,0,-2,-1,-2
1527709356055505,-2,-2,2,0,0,-3,-4,-1
1527709356055505,0,4,0,-4,-5,-3,2,-4
1527709356056505,-1,-6,-5,0,7,1,-4,1
1527709356056505,-2,-2,1,-1,4,-2,0,2
1527709356077492,5,3,2,-2,-8,-5,5,-2
1527709356077492,0,-2,-4,-1,2,-3,-2,1
1527709356078491,0,1,0,-4,-1,-2,0,1
1527709356078491,3,-1,1,0,-2,1,1,0
1527709356101477,-1,-2,0,-3,0,3,-1,-4
1527709356101477,-1,-3,1,-1,1,-1,-3,2
1527709356101477,3,-4,-5,1,1,0,-4,-2
1527709356101477,2,2,1,1,-7,-5,4,-1
1527709356115469,-2,-4,0,3,6,4,-4,2
1527709356115469,-1,-1,1,1,3,6,-3,-1
1527709356116469,-1,4,3,-1,-9,-5,4,-3
1527709356116469,-3,0,-2,0,1,-2,-2,1
1527709356137468,-1,-1,3,-2,-7,-3,1,2
1527709356137468,-1,-3,-1,-1,0,2,-1,2
1527709356138454,2,1,1,2,2,0,0,0
1527709356138454,-1,-2,0,-2,0,-3,-4,-2
1527709356161441,-2,-1,-2,0,-1,-2,0,0
1527709356161441,2,5,2,-2,-10,-8,6,-4
1527709356161441,-4,-2,0,1,3,-1,-2,1
1527709356161441,-2,-2,-2,-1,5,4,-2,2
1527709356175430,3,6,-1,0,-4,3,2,-4
1527709356175430,-1,-2,1,-1,3,-1,0,2
1527709356176430,-2,-2,-1,-2,-6,0,0,-2
1527709356176430,-3,0,-1,2,-5,-2,-2,1
1527709356198417,-3,1,0,-3,4,1,-3,0
1527709356198417,-2,-5,-1,3,1,1,-1,-3
1527709356198417,-1,-1,-5,-2,-1,-3,0,1
1527709356198417,2,1,-2,-2,-3,-1,6,0
1527709356221404,-2,-5,-2,0,2,2,-3,-1
1527709356221404,0,1,0,1,4,0,0,-2
1527709356221404,-2,2,1,0,-5,-1,0,-1
1527709356221404,0,-2,-1,2,4,3,-5,-1
1527709356235398,0,2,0,0,3,2,0,1
1527709356235398,-3,-4,-1,0,-1,-3,-1,-2
1527709356236394,0,2,4,0,3,2,0,1
1527709356236394,-1,-2,1,-2,-1,1,-1,0
1527709356258380,-4,-5,-3,-2,-1,-1,-3,-2
1527709356258380,1,5,1,-4,-7,-1,5,-3
1527709356258380,0,-4,-2,1,6,0,-3,-1
1527709356258380,-1,-2,3,-1,1,2,-2,2
1527709356281365,2,2,3,-2,-7,-2,4,1
1527709356281365,-2,-2,-4,2,6,3,-4,3
1527709356281365,0,0,-2,-2,-5,1,2,-2
1527709356281365,0,0,2,-2,-3,-3,3,-2
1527709356295358,0,-2,-1,2,3,1,-3,-2
1527709356295358,-1,0,-1,-1,-5,-8,0,2
1527709356296356,1,-1,-1,3,5,3,-3,0
1527709356296356,1,3,0,-3,-4,-4,6,-4
1527709356318341,-2,-5,-1,4,4,-2,0,1
1527709356318341,0,0,-1,-2,1,0,-3,2
1527709356318341,2,2,0,-4,-7,-8,3,-1
1527709356318341,-2,-3,-2,1,3,3,-7,2
1527709356341328,2,3,1,-4,-2,0,2,-1
1527709356341328,-3,-2,0,-2,-1,-2,2,-2
1527709356342327,-3,0,-1,2,3,-4,-1,1
1527709356342327,-1,-1,-3,1,-1,-2,2,-2
1527709356355321,-2,-3,-2,0,2,0,-4,2
1527709356355321,2,1,0,-3,-7,-3,4,-2
1527709356356319,0,-3,0,-2,4,1,-4,3
1527709356356319,-2,-1,-2,1,6,0,-1,-1
1527709356378305,0,1,-1,-3,-13,-2,1,-3
1527709356378305,-2,-4,-3,-1,6,5,-4,-2
1527709356378305,-1,-1,1,0,-5,3,-1,-1
1527709356378305,0,-2,0,-1,-4,-2,-1,-2
1527709356401290,-2,0,0,-2,2,1,-1,1
1527709356401290,-1,0,-1,-2,-5,-1,0,-3
1527709356402290,-1,-4,-2,-2,-3,-3,0,2
1527709356402290,-3,2,1,-2,0,2,1,-2
1527709356415284,-3,0,-1,3,-1,1,-5,3
1527709356415284,1,-2,2,2,1,1,-4,2
1527709356416283,0,3,2,-2,-5,-2,6,-4
1527709356416283,-1,-4,-3,1,4,1,-6,1
1527709356438271,2,1,-2,-1,0,-5,1,0
1527709356438271,0,0,3,1,-1,-1,0,1
1527709356438271,-2,-2,-2,0,7,2,-3,1
1527709356438271,3,-1,-2,-1,-2,1,0,-1
1527709356461255,-3,-3,-4,0,2,-2,0,-4
1527709356461255,2,4,2,0,0,-2,5,1
1527709356462252,2,-3,-3,1,2,0,1,0
1527709356462252,0,-2,1,-1,4,-2,-5,-2
1527709356475244,0,4,2,-1,-11,-1,5,-3
1527709356475244,-2,-1,-3,1,2,0,-2,2
1527709356483240,-2,0,1,-3,-3,-1,-1,-1
1527709356483240,-2,1,-2,-1,-1,-3,2,2
1527709356498230,2,-1,0,-1,3,1,-1,-1
1527709356498230,1,0,-2,-3,-4,-1,0,1
1527709356498230,-1,1,3,-1,-3,-1,-4,1
1527709356498230,2,1,-1,-2,-5,1,2,-1
1527709356521216,-3,-4,1,0,0,-3,-4,0
1527709356521216,-1,-3,-2,4,2,-2,-4,1
1527709356522216,0,1,-2,-4,-9,-1,4,-7
1527709356522216,-1,-1,2,0,3,2,-2,4
1527709356535207,0,-2,0,-1,2,-4,2,-2
1527709356535207,0,1,-2,0,-3,-4,0,-1
1527709356543202,-1,-3,-1,-1,2,2,-3,0
1527709356543202,-1,-2,0,-3,-3,0,3,-3
1527709356558193,1,-4,-4,3,-3,-3,-1,-1
1527709356558193,1,3,3,-1,-2,5,0,-2
1527709356558193,-3,-3,2,0,-2,-1,-2,1
1527709356558193,-3,-1,-1,-1,5,0,-3,0
1527709356581179,1,5,1,-2,-8,1,3,-4
1527709356581179,0,-4,-3,1,2,2,-3,1
1527709356582178,0,-3,-2,-3,4,3,-2,0
1527709356582178,-2,2,2,3,-5,-1,-1,-2
1527709356595177,1,1,1,-2,4,6,-5,0
1527709356595177,-1,-2,-3,-1,-2,-5,0,1
1527709356603166,-2,-2,0,-3,-2,-3,0,-2
1527709356603166,1,1,1,-3,0,4,3,0
1527709356618156,-3,-5,0,2,2,0,1,1
1527709356618156,-3,-1,-1,2,2,2,-3,0
1527709356618156,2,3,0,0,-6,1,4,-2
1527709356618156,-3,-1,-3,1,3,4,-4,2
1527709356641142,-1,1,2,-2,5,0,-7,1
1527709356641142,1,-1,-1,-3,-8,-9,3,-1
1527709356642141,-2,-1,0,0,6,-2,-2,-1
1527709356642141,1,1,0,0,-5,-4,1,-6
1527709356655133,-1,-2,-3,-1,-2,-1,-1,0
1527709356655133,3,4,3,0,3,4,1,-3
1527709356663129,1,-3,-2,0,0,-3,-4,2
1527709356663129,-1,-3,-2,2,-1,-1,-2,2
1527709356678119,1,6,2,-2,-7,-1,6,-4
1527709356678119,-3,-4,-2,-2,4,1,-6,-2
1527709356679117,0,0,-1,1,3,2,-2,4
1527709356679117,0,1,-1,-2,-8,-4,3,-1
1527709356701105,-1,-2,-3,-1,8,1,-4,0
1527709356701105,-1,-1,2,-2,-2,-1,2,-3
1527709356702104,-2,0,1,4,0,-2,-1,-1
1527709356702104,1,1,-2,-4,3,-2,2,2
1527709356715096,-2,-2,1,3,-1,0,-1,2
1527709356715096,-3,-2,1,-4,3,0,-7,2
1527709356723091,2,5,2,-5,-7,-3,4,-4
1527709356723091,0,-2,-3,2,3,0,-3,-1
1527709356738088,0,-1,-2,-2,-1,2,2,4
1527709356738088,0,0,0,-2,-5,-1,4,-2
1527709356739082,-2,-2,-2,2,5,-5,-4,1
1527709356739082,-1,0,1,-2,-3,-3,0,0
1527709356761067,-2,-3,0,0,1,1,0,-1
1527709356761067,0,1,-3,-1,5,2,2,-2
1527709356762067,-1,-1,-2,0,-2,1,-1,0
1527709356762067,0,-3,-1,1,0,-1,-2,0
1527709356775058,3,3,3,0,-7,-6,6,-5
1527709356775058,-3,0,2,1,-2,-2,-1,4
1527709356783053,0,0,1,0,4,1,-3,1
1527709356783053,1,1,0,-1,-5,-1,1,-3
1527709356798044,-1,-3,-2,0,4,-3,-2,0
1527709356798044,2,1,-3,1,-3,1,1,-3
1527709356799043,1,-4,0,-1,-2,-2,2,2
1527709356799043,1,-1,1,-3,0,5,0,-2
1527709356821030,-2,0,0,-1,6,2,-2,0
1527709356821030,-2,-2,-2,-1,0,-1,-1,0
1527709356822029,0,6,0,-2,-8,1,1,-4
1527709356822029,0,-2,-2,2,5,0,-2,1
1527709356844017,-1,-3,-4,-2,0,-1,0,2
1527709356844017,4,0,-1,-2,-6,2,1,-6
1527709356844017,0,-1,-4,2,3,5,-3,0
1527709356844017,-1,1,1,-2,-2,-2,-1,-2
1527709356858007,-1,-4,-1,-4,-5,-5,-1,0
1527709356858007,-2,0,1,2,4,1,-2,2
1527709356859006,-1,-3,-2,1,-2,-3,1,-2
1527709356859006,-3,-3,-1,1,-3,-2,-4,1
1527709356880994,0,6,1,-2,-4,-6,3,-3
1527709356880994,-2,-6,-2,2,1,-3,-1,2
1527709356881992,-3,2,-1,0,3,-1,-1,0
1527709356881992,0,1,4,0,-6,-4,3,-3
1527709356903979,0,-2,-1,-1,4,3,0,1
1527709356903979,-1,0,1,-2,-7,-3,0,-4
1527709356903979,1,2,-1,1,-7,-6,3,-2
1527709356903979,-1,0,-2,-1,2,-2,1,2
1527709356917970,1,0,-1,-4,-1,0,-1,1
1527709356917970,1,-5,-2,0,0,1,-3,0
1527709356918970,1,2,2,-3,-3,5,3,-1
1527709356918970,-1,-3,-2,0,5,5,-4,3
1527709356940955,-3,-3,1,2,2,2,0,0
1527709356940955,0,4,0,-2,-5,-4,6,-2
1527709356941955,1,-4,-2,1,4,5,-7,1
1527709356941955,-3,2,-2,-1,-1,1,1,-4
1527709356963941,0,-1,-3,0,-3,1,-1,-3
1527709356963941,-3,2,-1,1,6,4,-2,3
1527709356963941,0,-4,0,0,-3,0,2,-1
1527709356963941,1,-2,2,2,1,3,1,1
1527709356977934,2,2,0,1,1,8,0,0
1527709356977934,-1,-2,-2,-1,1,0,-4,0
1527709356978933,-3,-1,-2,0,6,2,-3,-2
1527709356978933,2,1,0,-3,-5,-9,2,-2
1527709357000918,-2,-5,0,-1,2,0,-4,1
1527709357000918,1,0,2,0,0,5,6,-1
1527709357001917,1,3,2,-1,1,1,-1,0
1527709357001917,1,-1,-3,0,3,0,1,-1
1527709357023903,-3,2,1,2,-4,-4,3,-2
1527709357023903,-2,7,-1,2,1,-1,-4,1
1527709357023903,2,2,1,0,-2,-2,2,-4
1527709357023903,-3,-4,-1,0,4,6,-4,-2
1527709357037897,2,0,-1,2,5,6,0,2
1527709357037897,1,-3,1,-3,-10,-2,4,-2
1527709357038894,-3,-6,-2,1,4,0,-4,2
1527709357038894,0,3,-1,-2,1,0,-2,3
1527709357060880,-2,-3,0,-2,-4,-2,1,-3
1527709357060880,-2,-2,2,1,6,0,-3,0
1527709357061880,-10,-2,0,1,-1,0,3,3
1527709357061880,-4,-6,-4,3,5,-2,-4,3
1527709357083868,1,3,3,-2,0,-2,2,-2
1527709357083868,1,-4,-3,0,3,2,-4,0
1527709357084866,-7,-11,-3,-1,1,1,-2,1
1527709357084866,11,19,4,-2,-13,-5,7,-2
1527709357097857,6,-12,-1,1,10,6,-2,2
1527709357097857,-21,2,1,-2,4,4,-3,-6
1527709357098857,4,-2,-1,0,-1,0,3,-4
1527709357098857,-3,-7,-1,0,3,1,-2,2
1527709357120845,1,-2,-1,2,-3,4,-5,-2
1527709357120845,6,-4,-2,0,-1,-5,1,0
1527709357121844,3,0,0,-2,-4,-1,4,-2
1527709357121844,-4,-6,-1,0,3,-2,-1,-2
1527709357143829,1,4,-1,-2,4,0,-3,3
1527709357143829,4,2,0,-2,-8,-5,5,0
1527709357145829,-1,2,-2,-1,2,0,-3,-2
1527709357145829,0,0,0,0,2,1,1,1
1527709357156822,-1,5,3,0,-4,-4,1,-2
1527709357156822,1,-1,-1,0,4,2,-2,1
1527709357166814,2,1,-2,-4,-3,4,0,-1
1527709357166814,0,-2,-2,-2,0,-3,-2,-2
1527709357180807,-2,-3,4,-1,-3,-1,-2,-2
1527709357180807,1,-6,-4,0,2,1,-3,-2
1527709357182806,2,0,0,-1,4,1,-4,-2
1527709357182806,1,3,0,0,-8,0,0,-3
1527709357203792,-3,0,-2,-1,2,-2,-2,2
1527709357203792,1,1,-2,0,3,2,0,0
1527709357204791,1,1,1,-1,-5,-3,0,0
1527709357204791,0,0,0,-1,5,8,1,3
1527709357216783,1,1,-1,1,0,-1,1,-3
1527709357216783,-1,2,0,1,-3,-1,-1,-3
1527709357225778,0,1,-1,0,-1,-1,1,4
1527709357225778,0,-4,0,-3,-2,1,-2,-3
1527709357241768,-3,1,-1,-2,1,3,-3,2
1527709357241768,3,1,3,-2,-6,-2,1,-4
1527709357243769,-3,-12,-2,3,6,-1,-5,3
1527709357243769,-3,13,-1,1,2,2,-1,-1
1527709357263755,-1,-1,-2,-4,-8,-3,2,-2
1527709357263755,3,-6,0,-2,6,-1,-4,2
1527709357264754,2,-18,0,-1,-3,-6,0,-1
1527709357264754,-1,14,-2,-2,1,0,2,2
1527709357277745,0,-1,0,0,0,-5,1,-3
1527709357277745,-2,3,-3,-2,-3,-3,-1,5
1527709357285741,-1,1,-3,1,0,2,-2,-7
1527709357285741,0,-4,1,-3,-6,1,1,-2
1527709357300731,-3,-1,-2,0,3,0,-4,1
1527709357300731,0,-1,-1,1,3,-2,0,0
1527709357302730,-1,9,3,-4,-6,-1,4,-2
1527709357302730,-1,-7,-1,1,3,-2,-3,0
1527709357323718,2,3,1,-2,-7,-3,3,-3
1527709357323718,1,-6,-2,0,1,0,0,0
1527709357324717,2,6,2,3,1,4,0,-1
1527709357324717,-2,-4,-2,-3,-1,0,2,-1
1527709357337709,6,-10,-2,-3,5,0,-4,2
1527709357337709,-9,13,0,0,-9,-1,3,-6
1527709357346704,0,2,-3,2,4,-1,-4,2
1527709357346704,0,-9,-3,-2,2,0,-1,-1
1527709357360694,-3,4,0,1,-9,-4,0,-10
1527709357360694,-2,-8,-4,-1,1,0,-4,3
1527709357362692,20,7,3,-1,1,0,4,2
1527709357362692,-9,-4,0,1,-5,-3,-2,3
1527709357383680,0,3,1,-4,4,6,0,2
1527709357383680,-2,-27,-4,0,1,-2,-2,-3
1527709357385678,7,49,-1,-1,3,4,-2,2
1527709357385678,14,-10,-2,-1,-8,-2,2,-10
1527709357397674,1,3,-2,3,1,2,0,22
1527709357397674,-9,5,1,1,6,5,-2,-20
1527709357406665,-4,-13,-4,-3,-13,0,0,9
1527709357406665,-12,0,-3,-1,5,2,0,0
1527709357428655,-5,7,-1,0,-3,-1,0,-14
1527709357428655,7,0,2,0,-1,1,4,16
1527709357430651,-5,-3,4,2,7,1,-4,-3
1527709357430651,-13,-1,-3,-2,0,0,-7,2
1527709357443642,-1,-5,-2,1,-1,-5,-1,-2
1527709357443642,17,13,4,-5,-8,-2,3,-12
1527709357445641,-12,-18,-6,-5,0,-3,-3,4
1527709357445641,-2,-16,-6,2,12,2,-16,2
1527709357457635,-5,2,2,-2,-7,2,5,-4
1527709357457635,0,-5,-5,1,-3,-4,-6,9
1527709357466630,-4,9,1,0,-1,-2,0,-16
1527709357466630,10,7,2,-2,-3,-4,6,2
1527709357480620,-11,-16,-9,4,12,0,-4,-2
1527709357480620,2,4,-1,2,-3,-5,-17,-2
1527709357482618,-10,-16,-3,1,7,0,-7,-9
1527709357482618,-1,4,9,2,-12,-7,6,-34
1527709357502606,-9,6,-13,3,42,17,-22,-37
1527709357502606,-5,-47,-10,1,24,12,-14,24
1527709357511602,22,11,5,-4,-10,-2,21,6
1527709357511602,-54,-58,-4,0,1,4,-5,-4
1527709357517597,91,11,-6,-13,-50,-20,16,99
1527709357517597,-50,33,6,3,8,-3,-4,12
1527709357526593,-75,-9,-1,3,2,1,12,27
1527709357526593,-19,-17,-8,-2,3,-5,-2,-4
1527709357540582,90,25,22,-7,-30,-8,25,96
1527709357540582,55,12,2,5,-26,-8,6,21
1527709357542581,-12,-41,-3,5,-19,-12,37,-14
1527709357542581,40,115,5,4,15,6,-13,7
1527709357563569,-20,-8,3,-6,1,-6,-1,-35
1527709357563569,9,8,-1,-8,1,2,0,-35
1527709357565566,-17,-51,-7,0,12,4,-27,-30
1527709357565566,28,-33,-13,-5,-25,-4,-4,-1
1527709357577559,-65,17,10,4,28,6,-59,-33
1527709357577559,-17,-32,-4,-2,7,-2,5,8
1527709357586554,28,16,-10,-8,-17,-6,-7,3
1527709357586554,-2,-25,-15,-7,-7,9,12,34
1527709357601543,-14,23,-17,5,39,18,-52,37
1527709357601543,43,-98,-11,-4,-8,-5,-2,-10
1527709357602545,46,127,27,0,6,2,-6,-5
1527709357602545,38,-4,15,-7,-9,-7,3,-5
1527709357623531,-49,-96,-34,2,4,0,19,-33
1527709357623531,-21,-46,16,8,7,5,14,-50
1527709357625530,51,47,1,-8,33,14,6,9
1527709357625530,17,6,-3,14,-6,-2,-4,57
1527709357637523,22,72,29,-4,-24,-6,26,-14
1527709357637523,-33,125,7,1,4,4,1,-10
1527709357646516,-42,-118,-38,-16,-14,-18,-10,-31
1527709357646516,-45,-15,-30,-12,4,0,24,-30
1527709357660509,61,101,43,19,36,22,31,-34
1527709357660509,-15,-72,-6,-6,-21,-10,-8,16
1527709357667504,37,-34,-7,2,-10,-11,-7,19
1527709357667504,15,-90,37,7,-6,-18,64,-2
1527709357683494,20,-119,-20,-5,-22,-5,17,37
1527709357683494,109,-54,-6,0,-22,-8,18,-14
1527709357685492,-25,-14,-7,10,13,8,-9,4
1527709357685492,26,-13,-2,14,-11,7,-4,1
1527709357706480,-32,-117,-7,-9,-6,-5,-9,-22
1527709357706480,-28,26,41,18,11,10,8,13
1527709357707479,-17,-118,-28,-15,-18,-5,-4,29
1527709357707479,5,-43,-19,-2,14,10,-18,-4
1527709357721469,-20,40,5,-1,6,2,-12,1
1527709357721469,-18,-81,-29,-11,-5,-8,-11,17
1527709357727466,34,61,14,16,10,3,-6,-14
1527709357727466,-15,-44,-24,-14,8,0,-2,-56
1527709357743456,-18,-42,-26,-22,6,-2,-46,-15
1527709357743456,16,-8,41,2,-19,-3,12,-7
1527709357745457,83,91,-3,0,29,22,-17,-15
1527709357745457,-14,4,-19,-8,-12,-14,-29,28
1527709357766442,-40,56,-27,3,-20,-10,9,-32
1527709357766442,-17,88,8,-7,8,7,-13,-14
1527709357767441,-70,-82,17,6,-8,2,13,1
1527709357767441,-38,-7,-22,12,10,4,-12,-29
1527709357780437,32,34,83,-5,21,9,16,25
1527709357780437,-32,-25,-33,0,1,3,1,-6
1527709357787433,-24,-60,12,2,-6,-5,3,7
1527709357787433,58,67,39,-5,-14,-3,12,42
1527709357803421,45,-91,-52,-31,-51,-30,49,35
1527709357803421,29,52,36,44,56,29,-29,6
1527709357805420,-6,23,18,-8,-13,-7,1,-5
1527709357805420,-2,-85,-24,-9,-23,-11,12,-12
1527709357826405,-37,-80,-8,5,54,13,-52,-54
1527709357826405,-6,-14,-44,-31,-7,-18,15,35
1527709357827404,25,50,19,12,-4,-2,2,-10
1527709357827404,14,-29,7,6,13,7,13,-4
1527709357840397,-8,-19,-27,22,-9,-4,-2,-18
1527709357840397,9,10,20,-15,-12,-5,12,-11
1527709357847391,-15,-27,-37,-2,13,4,-7,-27
1527709357847391,13,-3,32,-5,0,2,1,49
1527709357863384,-35,-22,-10,2,-16,-8,11,-4
1527709357863384,7,-62,-8,5,10,5,3,29
1527709357865381,67,41,12,-11,-39,4,55,24
1527709357865381,50,115,55,5,2,-6,-8,-5
1527709357886368,30,27,17,8,-2,0,-40,-28
1527709357886368,-18,-2,-30,5,-15,-11,4,22
1527709357887366,-15,-59,-50,-10,-9,-7,-17,29
1527709357887366,-14,45,39,2,3,4,4,26
1527709357900359,-25,-61,-33,-34,-15,0,1,12
1527709357900359,-44,-38,53,-1,2,-3,6,-21
1527709357907354,64,90,4,-16,-15,-6,25,32
1527709357907354,46,45,-14,-2,-3,3,22,22
1527709357923344,22,0,3,0,-5,0,21,-12
1527709357923344,39,21,4,10,-25,-7,24,26
1527709357925343,-33,-15,16,2,4,6,18,-2
1527709357925343,-25,-25,-6,-1,3,0,-6,-7
1527709357946337,-33,5,10,8,-10,-2,-10,-13
1527709357946337,-4,33,4,4,1,-1,22,-32
1527709357947331,-10,-24,20,12,22,0,-36,-3
1527709357947331,-17,-36,-36,-1,13,2,-56,-17
1527709357960322,-21,9,10,12,17,6,9,-8
1527709357960322,-41,-60,-21,-5,26,4,-34,-17
1527709357967322,5,72,18,6,29,8,-30,-4
1527709357967322,-21,-47,-30,1,-1,-4,-29,-14
1527709357983314,24,3,22,-4,5,3,21,-17
1527709357983314,-13,-13,-29,-11,-8,-2,-13,-14
1527709357985308,-1,-62,16,19,19,7,-8,-44
1527709357985308,-26,-8,1,-8,28,7,5,-20
1527709358006293,60,45,4,7,-25,-14,11,1
1527709358006293,-12,29,-14,-7,5,3,-11,-47
1527709358007293,-17,-91,-21,-12,-1,-3,-11,-36
1527709358007293,44,-27,-2,12,8,7,1,-4
1527709358019285,27,36,23,2,2,10,3,35
1527709358019285,16,13,54,-18,-15,-7,-14,-19
1527709358028279,-37,-57,-80,-4,-8,-14,-15,35
1527709358028279,38,-5,19,-45,-8,-4,-26,9
1527709358043270,11,88,-17,29,-26,-15,6,8
1527709358043270,28,-12,16,-22,18,12,-9,22
1527709358045269,-35,20,33,8,-27,-9,20,24
1527709358045269,-15,-12,-1,-6,-19,-6,22,14
1527709358066255,-7,-34,-21,-3,-3,4,-3,18
1527709358066255,2,0,-30,12,6,-2,-4,3
1527709358067254,34,-17,3,-3,0,-1,-9,-1
1527709358067254,-52,-12,-5,16,-2,-4,-6,-32
1527709358080247,-15,10,28,-6,27,16,-17,-13
1527709358080247,-3,40,6,-1,-6,10,62,24
1527709358087243,-2,-8,12,-8,6,-1,4,-12
1527709358087243,52,10,-1,6,14,13,-3,-3
1527709358103233,23,-37,-48,-21,-12,-5,5,33
1527709358103233,-4,2,15,5,25,6,-50,-7
1527709358105232,8,-30,14,-13,-6,-3,11,-16
1527709358105232,-56,20,-18,11,7,3,0,-23
1527709358126218,-81,-73,20,-16,5,-1,3,4
1527709358126218,77,42,-46,6,-4,4,-6,-10
1527709358128217,30,-83,-50,1,-3,-7,-12,45
1527709358128217,37,32,50,-23,1,-1,-8,13
1527709358140209,22,-13,-11,10,-19,-11,27,-10
1527709358140209,-24,3,1,-8,2,0,-18,19
1527709358147206,8,-40,1,3,9,-2,-12,-6
1527709358147206,-47,-13,-36,-36,-3,-5,3,12
1527709358163197,-72,-34,-47,2,18,2,-17,-21
1527709358163197,14,0,75,33,20,5,-6,12
1527709358165194,0,-34,-34,-15,-3,-4,-2,-6
1527709358165194,-7,63,-14,4,-14,-7,19,-19
1527709358186182,-18,-3,41,2,13,5,-23,-36
1527709358186182,-24,-96,-59,0,28,3,9,-16
1527709358188180,-9,18,10,-9,-15,0,12,14
1527709358188180,-7,-13,-15,22,-11,-3,28,-14
1527709358200176,-37,-2,62,4,-18,-15,-5,-4
1527709358200176,2,26,-82,-8,-2,-5,-7,11
1527709358207168,-1,81,37,1,-5,7,20,-19
1527709358207168,-10,-42,3,9,7,4,-3,11
1527709358223158,28,-3,-15,3,6,3,9,2
1527709358223158,24,-6,16,-6,-23,-12,13,-4
1527709358225156,-39,-17,6,-4,-2,0,2,39
1527709358225156,-41,-27,-16,13,24,9,-23,-17
1527709358246145,-57,-7,-2,-3,23,3,-18,-31
1527709358246145,16,0,11,-1,-11,-2,6,-17
1527709358248144,6,-63,20,30,5,-3,-14,-25
1527709358248144,25,64,21,1,-5,-7,6,19
1527709358261136,3,9,0,-1,10,7,-4,-14
1527709358261136,-7,-63,-15,-8,7,0,-8,-3
1527709358267132,-5,37,14,-3,-3,6,7,15
1527709358267132,13,31,23,16,-23,-10,11,9
1527709358284121,67,38,-29,-3,-2,6,-2,0
1527709358284121,-11,10,-8,6,-16,-9,8,-8
1527709358285122,8,100,15,3,4,4,23,17
1527709358285122,41,-26,24,5,-6,3,-5,44
1527709358306108,-25,-37,-47,1,-11,-3,5,7
1527709358306108,16,-15,29,56,18,6,-9,-8
1527709358308106,-14,-3,77,-4,15,1,-1,-6
1527709358308106,-17,-110,-93,5,-2,-10,-13,10
1527709358320098,7,-17,29,-9,22,6,-15,32
1527709358320098,-63,-13,-36,-18,-5,-6,-25,-27
1527709358329093,60,14,-32,-2,10,0,-9,12
1527709358329093,56,-5,20,22,6,6,-4,-20
1527709358343083,8,-9,6,-3,-3,2,-10,8
1527709358343083,-33,3,-4,-20,1,4,5,-2
1527709358345084,20,7,-23,-1,4,5,-10,1
1527709358345084,-17,-40,-8,-5,-5,-2,-5,-14
1527709358366070,36,-17,-9,10,-2,-2,12,-10
1527709358366070,20,-37,2,-25,-2,-2,6,16
1527709358368068,-26,-25,0,3,-6,-3,-6,-20
1527709358368068,-35,-14,-4,-6,-11,-5,14,-15
1527709358380060,-17,0,-13,-1,27,9,-24,8
1527709358380060,28,74,59,6,-2,5,16,-8
1527709358389055,-6,-11,-11,6,-10,-10,2,-1
1527709358389055,-68,-13,-6,2,14,5,-6,-12
1527709358404045,15,112,13,5,-5,0,1,20
1527709358404045,7,-22,-1,-6,-4,-6,-7,-8
1527709358405044,1,32,-23,-2,-1,4,12,5
1527709358405044,37,36,26,7,-20,-11,12,27
1527709358426032,-5,32,10,1,-9,-4,18,-10
1527709358426032,-7,15,-21,-3,-18,-2,11,17
1527709358428033,-3,0,5,3,3,2,-3,-7
1527709358428033,13,18,3,1,4,7,2,6
1527709358440023,-33,-56,-3,-1,-8,-9,9,-10
1527709358440023,23,17,-56,-7,13,4,-5,1
1527709358449017,0,-25,9,-16,4,3,-14,-6
1527709358449017,31,127,25,-10,-14,-6,14,-36
1527709358465008,5,-3,-29,3,-1,0,-10,20
1527709358465008,41,24,65,-14,-30,-10,16,23
1527709358467006,55,-20,-31,-3,-3,-3,3,-14
1527709358467006,24,-24,-5,0,-3,-2,10,11
1527709358485995,53,79,77,2,0,4,12,8
1527709358485995,-25,-87,-40,10,-5,-8,16,-8
1527709358487993,-20,-44,11,22,8,0,-8,-10
1527709358487993,0,-51,-4,-15,34,11,-1,20
1527709358499986,11,-34,-16,-1,-10,-6,18,-9
1527709358499986,41,80,5,-8,5,3,-6,4
1527709358508980,-11,26,-7,-2,9,2,-4,-16
1527709358508980,26,-29,13,21,-5,-4,17,-1
1527709358523971,-8,-69,-8,-12,4,0,-2,9
1527709358523971,4,14,1,-11,-13,1,4,-13
1527709358524971,-44,-6,-9,11,0,-2,6,15
1527709358524971,-11,31,-7,-19,5,1,-21,-11
1527709358545957,-3,-45,-25,-1,-14,-10,7,1
1527709358545957,-46,-18,11,8,15,0,-35,-17
1527709358547956,8,89,7,0,-4,-4,-15,-14
1527709358547956,-14,-20,-5,-7,-9,3,-3,-19
1527709358568943,42,38,24,13,2,7,11,11
1527709358568943,-12,-32,-39,-2,11,3,-11,11
1527709358569942,-8,-13,-3,-15,0,0,1,-23
1527709358569942,-8,-21,5,0,-2,0,16,18
1527709358583934,4,-51,-5,-15,12,5,-4,11
1527709358583934,-10,-2,40,21,-2,-1,13,11
1527709358584933,10,66,-1,-3,1,1,5,-9
1527709358584933,-9,-8,-1,-7,0,-5,-10,-5
1527709358605920,-30,-2,-10,7,-10,-2,10,6
1527709358605920,-13,107,21,-3,5,-1,8,6
1527709358607919,19,15,1,1,3,1,-9,19
1527709358607919,22,14,6,2,-15,-7,3,-2
1527709358628906,-15,-13,-11,-2,12,3,-13,28
1527709358628906,17,7,-17,-2,-13,-6,7,-8
1527709358629905,-14,-31,12,11,1,-5,-21,-1
1527709358629905,0,0,14,0,8,7,2,7
1527709358643897,5,-2,4,-1,-28,-14,5,-29
1527709358643897,-17,-13,-2,7,6,2,-6,-19
1527709358644900,-5,-7,5,-18,-2,-1,3,5
1527709358644900,5,-7,-22,21,-7,-3,-3,14
1527709358665883,13,9,21,0,-1,-1,-4,-19
1527709358665883,-7,-67,-5,0,3,0,-1,-30
1527709358667882,12,32,7,5,10,3,14,-6
1527709358667882,8,44,8,-19,3,7,9,25
1527709358688869,-10,-42,-27,3,5,5,-7,-18
1527709358688869,16,31,27,-3,-3,0,0,-8
1527709358689868,-46,-58,-2,-2,-11,-2,-7,-16
1527709358689868,-1,-37,-15,-4,8,2,-9,0
1527709358703860,14,18,-1,1,-2,-1,3,-6
1527709358703860,8,-11,-3,-3,-15,-9,6,30
1527709358704859,-5,6,1,-5,-16,-6,8,3
1527709358704859,14,-41,1,4,-16,-7,-3,19
1527709358725846,0,-20,14,10,2,-2,3,-3
1527709358725846,-3,-23,16,-4,6,3,-3,-5
1527709358727844,4,-61,-25,-3,4,3,-1,8
1527709358727844,5,47,-1,10,18,6,-12,4
1527709358748832,6,4,-9,1,-8,-2,-1,2
1527709358748832,18,-5,2,-1,1,0,-1,-12
1527709358754828,-43,-42,-4,4,3,1,4,-1
1527709358754828,-14,-10,2,-10,-5,-5,-3,-5
1527709358763823,7,7,-10,-3,-4,-4,9,1
1527709358763823,-26,63,13,3,3,1,-3,-2
1527709358764820,32,-48,-13,-5,1,-3,-10,13
1527709358764820,3,-75,-16,-2,5,-1,6,-3
1527709358785815,9,9,18,-2,-3,2,3,6
1527709358785815,-51,-45,-18,4,22,5,-15,16
1527709358787807,-51,-10,6,0,5,-4,-15,-26
1527709358787807,20,-2,-1,-8,13,2,-26,-16
1527709358815789,9,-95,-41,0,2,-3,13,9
1527709358815789,67,61,37,-2,-15,-1,14,-4
1527709358817788,-49,-54,-34,-5,-11,-4,-4,28
1527709358817788,-15,-14,0,-5,2,0,2,-17
1527709358823784,7,-2,2,-4,9,8,-8,-11
1527709358823784,12,-23,0,-1,-6,5,10,-5
1527709358824783,8,60,-21,10,0,2,2,-29
1527709358824783,-34,86,30,0,-2,-1,5,-20
1527709358845770,2,-16,7,-2,-8,-7,4,6
1527709358845770,-23,-50,-30,4,13,4,-8,17
1527709358847769,44,-16,27,5,11,5,3,0
1527709358847769,0,-19,-11,-4,-3,3,-8,6
1527709358868757,-1,66,8,1,6,5,-15,-18
1527709358868757,-23,-77,-19,-3,-9,-6,-3,-8
1527709358869755,-27,-8,-10,-8,8,-5,6,16
1527709358869755,-15,21,7,6,3,-1,4,-22
1527709358882748,-7,16,10,-1,-2,1,-2,6
1527709358882748,24,-8,-21,-2,-2,-6,1,54
1527709358889743,7,33,19,-1,-26,-11,14,16
1527709358889743,-11,-6,6,7,-6,-5,-6,11
1527709358905734,-8,11,-13,2,10,-5,3,-13
1527709358905734,-19,-23,-10,7,-11,-4,5,-13
1527709358907732,5,-5,27,3,8,4,-6,-4
1527709358907732,-11,-24,-24,0,-12,-8,15,31
1527709358928719,5,15,-2,-13,0,-3,4,22
1527709358928719,-11,-30,-23,0,13,0,-1,-32
1527709358929719,-2,47,20,-2,11,4,-3,-12
1527709358929719,20,-10,-23,1,9,1,-6,-1
1527709358942711,-3,-9,-11,-3,-4,0,3,-8
1527709358942711,-7,18,0,-3,5,-3,8,-3
1527709358949706,24,3,-10,-6,4,2,6,7
1527709358949706,9,4,5,-6,-3,-2,-6,-17
1527709358965698,22,13,-1,6,4,2,15,-16
1527709358965698,12,10,1,-10,-1,3,-3,5
1527709358967696,2,-4,-8,1,-3,-4,2,-3
1527709358967696,-39,-14,-3,-4,13,6,-5,-4
1527709358988683,-4,-26,-4,-3,-3,-4,-14,15
1527709358988683,0,-11,-2,10,-1,4,-2,22
1527709358990682,70,38,34,-8,-29,-7,27,26
1527709358990682,-4,24,-5,2,5,5,-12,7
1527709359002674,-4,4,7,-5,-4,2,-14,8
1527709359002674,-11,-2,0,3,2,1,1,-4
1527709359009670,1,-31,-30,1,8,-3,-10,3
1527709359009670,1,14,20,-3,-14,-6,1,4
1527709359026658,6,8,7,2,5,0,-8,8
1527709359026658,-7,57,6,-1,-10,-3,1,-22
1527709359027659,-38,-18,-2,8,5,3,-8,-6
1527709359027659,33,-15,4,1,5,2,-7,-22
1527709359048648,-43,-47,-15,-1,6,7,2,-14
1527709359048648,-2,-3,14,4,18,4,-21,-5
1527709359050643,13,-5,1,6,6,4,6,1
1527709359050643,-2,-15,1,-10,-11,-4,0,1
1527709359062636,-41,7,3,2,9,3,-5,-17
1527709359062636,27,13,-8,-5,-2,-1,1,5
1527709359069632,51,15,5,-4,-29,-13,12,23
1527709359069632,30,7,-3,3,3,3,8,-16
1527709359093618,11,-9,4,3,-4,-6,1,1
1527709359093618,-3,-3,3,-9,-2,-3,-4,-10
1527709359095619,7,49,-29,7,5,4,-6,-13
1527709359095619,-29,-52,4,0,8,3,-5,25
1527709359108607,11,-6,7,-1,2,-1,14,10
1527709359108607,-7,-34,-9,-7,-13,-9,9,4
1527709359110607,-14,2,-5,-3,11,4,-5,9
1527709359110607,39,80,26,2,-9,-3,4,12
1527709359122599,26,8,-1,0,-9,-2,-6,-3
1527709359122599,-8,-9,-1,-5,-3,-1,6,11
1527709359129594,-15,-22,-4,-5,2,3,-4,-10
1527709359129594,-15,-10,12,2,0,-4,1,24
1527709359145586,9,35,25,-1,-18,-2,0,-5
1527709359145586,7,-33,4,0,8,3,-5,18
1527709359147583,-2,-3,-4,-2,-1,-2,-1,-3
1527709359147583,14,33,13,-1,-6,-6,9,-24
1527709359168570,-21,-16,-20,-1,-15,-6,7,41
1527709359168570,-18,-16,1,-3,-10,-5,-2,-11
1527709359170570,14,-34,-1,6,7,1,-14,-22
1527709359170570,-26,-14,-15,-3,7,2,2,-18
1527709359182561,63,-22,13,15,4,2,-5,27
1527709359182561,43,86,46,-2,-41,-12,15,79
1527709359189559,-6,-17,-24,-5,-19,-11,10,16
1527709359189559,4,47,10,-3,-3,5,-3,-7
1527709359206546,11,16,-36,2,-2,5,14,-8
1527709359206546,13,62,36,-2,2,4,-3,-21
1527709359207547,-64,1,-12,5,23,5,-25,-33
1527709359207547,-26,-63,-12,-2,9,4,-4,10
1527709359228534,-36,16,3,8,-7,0,17,-23
1527709359228534,-35,-33,-13,3,14,7,1,-16
1527709359230532,-52,-56,-13,-6,7,3,-14,-46
1527709359230532,-14,-70,-37,-13,-7,-5,4,0
1527709359242525,7,63,14,-7,-17,-4,-2,27
1527709359242525,-9,-87,-32,2,18,0,-9,-17
1527709359251519,36,31,20,5,5,7,2,11
1527709359251519,20,-30,-3,9,-13,1,4,-3
1527709359266509,7,18,19,-7,13,7,-4,-4
1527709359266509,9,9,14,0,-6,0,3,-2
1527709359267509,2,-34,-24,-6,-3,-3,1,2
1527709359267509,-12,7,16,9,14,5,-8,-17
1527709359288496,1,10,2,0,0,-3,4,9
1527709359288496,14,22,-17,0,-2,-2,-8,24
1527709359290494,12,41,26,-1,-11,-1,11,4
1527709359290494,4,-3,-21,-3,3,-4,1,-4
1527709359302486,18,8,24,0,3,1,-9,4
1527709359302486,50,83,29,-1,-14,-2,14,-9
1527709359311481,24,-23,0,3,-4,-1,4,38
1527709359311481,22,-19,-25,-8,-8,-3,-12,-10
1527709359326471,-11,-58,-28,-7,3,-10,-21,-26
1527709359326471,-32,-29,-10,4,30,12,-5,-13
1527709359327472,16,25,23,-1,-20,-5,1,18
1527709359327472,-41,-29,-6,0,1,-4,4,-2
1527709359348459,-7,-36,-10,-4,-4,-3,3,22
1527709359348459,-108,-22,-21,6,3,-7,-14,-20
1527709359350458,21,22,15,5,18,5,-7,-7
1527709359350458,-11,1,17,-6,-10,-2,3,6
1527709359363449,-10,-25,-25,4,12,6,-4,0
1527709359363449,-15,-16,-3,-5,5,5,-2,-17
1527709359371445,-24,10,3,-4,6,1,4,-10
1527709359371445,20,49,6,9,-5,3,6,13
1527709359386436,-12,-4,2,9,7,-4,-6,-13
1527709359386436,35,-12,10,1,4,-1,-2,4
1527709359387441,-11,2,-4,-3,0,-3,6,-21
1527709359387441,9,38,5,3,12,-2,-7,2
1527709359408421,45,34,6,-4,-6,2,9,3
1527709359408421,31,-19,-19,1,-18,-8,10,19
1527709359410420,8,9,19,2,5,5,0,3
1527709359410420,-24,-5,-3,-3,-10,5,23,-1
1527709359422414,40,-14,6,-3,-2,-3,-6,7
1527709359422414,26,4,-2,4,-1,-4,3,11
1527709359431406,23,11,-2,-3,1,6,-6,12
1527709359431406,2,-23,-1,0,10,10,-2,6
1527709359446401,-11,5,-5,0,7,2,0,-10
1527709359446401,16,-25,2,0,3,-2,-4,-49
1527709359447397,-3,8,-6,-8,9,5,-8,-9
1527709359447397,1,11,17,3,-3,-6,-9,4
1527709359468383,-20,1,-6,3,9,3,-9,-10
1527709359468383,22,-26,-19,-4,3,3,11,-8
1527709359470382,4,38,12,0,-12,0,11,36
1527709359470382,-18,-50,-14,1,3,-6,-10,9
1527709359482377,-16,-14,-1,-10,-1,3,6,-2
1527709359482377,-1,-5,7,-5,-7,-7,-6,-8
1527709359491370,-24,-26,-23,-4,-6,-2,5,-2
1527709359491370,-33,47,25,4,-18,-7,6,15
1527709359506360,-5,-43,-5,-13,-1,0,-4,14
1527709359506360,-35,-45,-15,2,-2,0,-1,44
1527709359507359,-3,-35,11,5,2,0,3,6
1527709359507359,8,35,5,-2,8,6,-2,4
1527709359528349,-15,0,-7,-3,-22,-9,5,-2
1527709359528349,-4,33,8,1,3,5,13,-17
1527709359530347,-7,0,1,2,2,-6,-15,-25
1527709359530347,94,-7,-7,-1,-11,-9,-5,-5
1527709359542339,1,35,11,4,-8,-2,0,-13
1527709359542339,35,-3,-8,-2,12,3,-13,-15
1527709359551332,6,-35,-1,2,0,-5,10,-9
1527709359551332,-18,-14,10,-2,-13,0,8,-1
1527709359565326,21,27,-18,-4,4,2,8,-3
1527709359565326,-15,36,0,-1,-4,-3,-1,12
1527709359572325,-10,-8,1,-1,3,4,-2,-13
1527709359572325,-13,-14,4,-3,20,7,-4,14
1527709359588308,-16,-3,10,-8,-4,1,-8,-17
1527709359588308,-10,-34,-13,14,13,-4,-8,-3
1527709359590307,28,-6,6,-7,-2,-4,-3,13
1527709359590307,6,-9,-2,3,11,-2,-5,-13
1527709359602307,-44,-28,-16,2,11,-1,-8,-7
1527709359602307,30,-4,-9,-9,-19,-8,0,-17
1527709359611295,6,14,10,3,-2,-1,4,4
1527709359611295,-3,-8,-1,4,0,5,-3,8
1527709359624289,-8,-3,4,0,5,-3,-2,7
1527709359624289,-11,23,3,-2,7,3,-5,10
1527709359633281,18,43,2,0,-16,-10,18,-3
1527709359633281,10,-36,-25,-2,1,-1,-14,6
1527709359649273,6,-4,22,7,-3,2,6,6
1527709359649273,11,29,16,-4,-11,-2,6,19
1527709359650286,-54,-41,-6,-2,9,3,-13,-16
1527709359650286,33,28,-17,-3,-3,3,11,-3
1527709359662264,6,3,-6,-2,6,1,-10,-5
1527709359662264,-8,-13,-9,0,-2,2,-13,5
1527709359671258,23,11,0,-4,-6,-1,-2,-2
1527709359671258,27,26,11,7,1,1,11,5
1527709359686249,-4,-9,11,-1,-7,-1,-4,-16
1527709359686249,-14,-14,2,18,-3,0,15,-3
1527709359688248,6,-13,-5,-4,4,2,-6,9
1527709359688248,-36,14,5,-4,-2,-5,-11,10
1527709359708237,-38,-32,-10,2,14,-8,-7,2
1527709359708237,7,6,1,-6,-2,-4,1,-8
1527709359710234,-23,-31,-14,-3,0,-2,-2,1
1527709359710234,6,-22,-7,14,6,1,-11,-8
1527709359731220,23,-2,14,2,-6,0,28,1
1527709359731220,-39,-17,-8,-10,16,8,-7,4
1527709359732220,-8,13,-5,2,3,-2,2,2
1527709359732220,10,-9,0,-12,5,2,3,10
1527709359745212,10,10,3,2,-3,2,4,9
1527709359745212,8,-10,-1,0,-2,2,-8,4
1527709359752207,11,5,0,5,2,0,-5,2
1527709359752207,-2,-12,-10,-9,-10,-1,17,7
1527709359768196,20,53,6,7,4,3,-17,1
1527709359768196,3,-2,4,-7,0,2,7,3
1527709359770197,15,-8,-8,2,-6,-2,4,2
1527709359770197,0,-19,-7,-1,3,1,-8,-16
1527709359791183,-5,-13,-12,-8,0,0,0,-8
1527709359791183,-19,-17,-9,-3,8,1,-9,0
1527709359793187,1,-9,-5,-3,0,0,1,3
1527709359793187,0,0,6,-4,5,-1,2,-2
1527709359805173,4,6,-14,-1,1,2,3,1
1527709359805173,7,8,15,2,-9,-8,5,-3
1527709359814169,4,-21,3,0,7,1,0,7
1527709359814169,-7,-8,-7,-3,-1,0,-10,-11
1527709359828160,9,-6,4,1,-2,-1,7,7
1527709359828160,6,12,2,1,-1,-2,-4,0
1527709359830159,5,1,-3,1,-3,0,0,-1
1527709359830159,8,18,4,3,-1,-1,2,-2
1527709359851147,25,14,4,2,-3,-3,0,9
1527709359851147,14,10,-6,-7,-2,2,2,-2
1527709359853146,-4,-3,-3,2,2,-1,-5,-2
1527709359853146,1,18,11,-1,-13,-2,9,-4
1527709359865137,-1,-16,-3,0,1,-5,-5,1
1527709359865137,0,-7,-6,3,2,3,-3,3
1527709359874134,1,-12,0,-4,-8,-5,1,-1
1527709359874134,-5,3,-3,2,3,-1,-5,-2
1527709359888124,-8,6,9,0,-4,-2,-3,-4
1527709359888124,0,12,3,0,0,-1,1,3
1527709359890121,-2,-11,-1,2,4,0,-2,-3
1527709359890121,-5,-5,-1,-3,-7,-7,1,1
1527709359911110,-10,-8,-5,2,0,2,-6,-5
1527709359911110,2,11,7,-3,-7,-2,4,-1
1527709359913107,5,5,1,3,-3,1,0,5
1527709359913107,-3,0,0,2,4,3,-3,-4
1527709359925106,-1,22,1,-7,-10,1,-2,-2
1527709359925106,0,2,-2,-1,16,-4,4,-1
1527709359934094,0,17,0,3,-10,-4,1,-1
1527709359934094,1,15,-2,-2,-3,-5,4,-1
1527709359950084,-3,-25,-1,3,9,3,2,-1
1527709359950084,0,-6,0,-2,-9,0,-2,3
1527709359952083,0,11,0,-2,4,1,1,2
1527709359952083,0,-1,-1,0,-3,2,10,-1
1527709359971073,-4,-16,-3,3,1,-4,-2,1
1527709359971073,0,-6,-2,-1,4,2,-4,0
1527709359973072,3,1,1,-4,-6,-2,4,0
1527709359973072,2,-27,-1,-2,0,6,-5,-1
1527709359985069,-3,-12,0,-3,-4,0,-2,-2
1527709359985069,1,3,-2,-3,-9,-7,3,2
1527709359992058,-1,-25,0,2,3,6,-6,-1
1527709359992058,-4,0,3,-1,-3,-4,1,-2
1527709360009047,-1,4,-3,-1,11,-1,0,-1
1527709360009047,-1,-3,-2,0,2,-1,2,0
1527709360010047,0,-1,3,7,-5,-2,-3,2
1527709360010047,-2,-1,-3,0,3,1,-2,-1
1527709360031035,2,10,3,2,-14,-3,4,-4
1527709360031035,-1,-12,0,4,-4,-2,-5,-1
1527709360033034,2,6,-2,-1,7,0,5,-1
1527709360033034,0,7,1,0,-3,-5,-2,0
1527709360045026,-1,-6,0,-1,3,1,-5,1
1527709360045026,-1,4,-1,-1,-1,-2,1,1
1527709360054019,-2,4,-2,1,-1,2,-1,-1
1527709360054019,-1,2,0,-1,-5,2,-1,-1
1527709360069009,0,-2,-3,0,4,0,-1,0
1527709360069009,3,4,-3,0,5,1,1,-1
1527709360070009,1,10,3,-1,-8,-8,4,-3
1527709360070009,-3,-7,0,1,14,1,-6,1
1527709360090997,0,1,-1,-1,-7,-1,-1,2
1527709360090997,-1,5,1,-1,1,1,6,0
1527709360092996,-3,-3,1,-2,15,5,-2,-1
1527709360092996,-3,-4,-1,6,-23,-1,-5,-2
1527709360104987,-2,0,-2,-2,11,1,-5,0
1527709360104987,2,4,3,0,-21,3,0,-3
1527709360113983,0,-4,-1,-1,7,0,-2,5
1527709360113983,1,-1,1,4,10,4,0,-1
1527709360128972,1,7,1,-2,-6,-6,7,-3
1527709360128972,-4,-7,-2,-1,-1,2,-9,2
1527709360129972,-1,3,-2,0,6,-1,2,-2
1527709360129972,-1,0,-1,-2,5,-2,2,0
1527709360150959,-2,-6,1,-2,-4,-2,3,1
1527709360150959,1,-2,-2,-3,1,-2,2,-1
1527709360152958,-1,-2,-1,-3,1,-4,-2,-2
1527709360152958,2,6,-3,-7,-6,-2,2,-3
1527709360164952,-1,-4,0,0,7,-1,-3,1
1527709360164952,-2,-2,2,6,7,4,-4,2
1527709360173945,-1,5,0,-2,-12,-7,4,-3
1527709360173945,-2,-4,0,1,7,1,-2,1
1527709360188936,-1,3,0,0,2,4,2,-3
1527709360188936,-1,-1,-4,-3,7,-7,-1,-2
1527709360189934,-1,-4,1,-1,-21,6,-1,-2
1527709360189934,0,1,1,-1,6,4,0,1
1527709360210922,-4,-3,-2,2,-2,-4,-3,5
1527709360210922,0,10,1,-3,1,2,4,-3
1527709360212921,-1,0,-2,0,0,0,0,3
1527709360212921,-1,-5,-3,2,9,-2,-9,-1
1527709360224913,-1,1,-4,-5,-18,-1,0,-3
1527709360224913,1,5,2,0,10,7,0,-2
1527709360233908,0,-2,0,0,3,7,-4,0
1527709360233908,-1,-2,0,1,-9,9,1,1
1527709360248897,-3,-1,-1,3,1,5,-1,-2
1527709360248897,0,-4,1,1,0,-3,-3,-2
1527709360249897,-3,-7,0,-1,1,-10,-6,-1
1527709360249897,3,10,3,-2,-1,-5,8,-7
1527709360270891,3,-5,-4,1,7,-15,-3,-1
1527709360270891,-4,-8,-6,0,-1,-17,-4,3
1527709360272884,4,10,4,-3,-8,-13,8,-1
1527709360272884,-2,-7,1,0,1,-6,-4,-1
1527709360284876,0,-1,-2,-2,-3,8,0,1
1527709360284876,-2,-15,-3,0,-9,1,2,-1
1527709360293871,3,19,2,2,15,4,-2,2
1527709360293871,-1,-15,-3,-2,-5,-2,2,1
1527709360308863,-3,9,0,1,-3,1,-3,4
1527709360308863,-1,-39,2,-3,-3,5,3,-4
1527709360309860,0,38,-6,-5,0,3,0,-4
1527709360309860,0,-12,-3,0,6,6,-10,6
1527709360330848,6,-4,3,-3,-12,4,7,-5
1527709360330848,-2,5,-1,2,6,7,-4,1
1527709360332847,-1,-18,0,0,3,5,1,1
1527709360332847,2,11,0,1,-3,-4,3,-3
1527709360344841,2,10,2,-3,8,3,-3,-1
1527709360344841,-2,-3,-4,-5,-3,-1,-3,-1
1527709360353833,-1,-14,-4,2,1,0,-2,0
1527709360353833,1,11,2,-3,-2,-1,7,-4
1527709360368824,-1,-11,-1,2,3,0,-4,0
1527709360368824,-2,12,1,2,7,-1,-6,3
1527709360369824,-1,-4,1,-2,-11,-3,6,-4
1527709360369824,-2,-4,-3,3,9,0,-5,2
1527709360390811,-1,-2,-2,-1,4,0,-2,3
1527709360390811,0,9,1,-3,-4,-9,5,-4
1527709360392810,-1,-2,0,0,5,0,-3,1
1527709360392810,-1,-3,-1,-1,-7,-2,4,0
1527709360404802,-4,0,-3,-2,2,1,-4,0
1527709360404802,4,17,2,-2,2,2,2,-3
1527709360413796,-2,-13,-3,-1,-1,-1,-5,1
1527709360413796,-1,-1,1,1,1,-2,0,3
1527709360428787,3,4,1,-1,-8,-1,8,-6
1527709360428787,1,1,-2,-1,4,-2,-2,1
1527709360429786,2,-6,-4,3,7,1,-3,1
1527709360429786,-2,5,1,-4,-7,-6,0,-3
1527709360450774,1,0,4,2,3,-2,-4,0
1527709360450774,0,0,-1,0,-4,-5,0,-1
1527709360452773,-3,-3,-2,0,3,-4,1,-1
1527709360452773,0,5,0,-2,0,2,-1,-2
1527709360464765,-2,-6,2,4,-1,-4,-1,1
1527709360464765,1,-3,-2,0,0,-3,-2,1
1527709360480754,2,2,3,-3,-8,-5,7,-3
1527709360480754,-2,-5,-2,0,5,-1,-5,3
1527709360487751,-2,-2,-3,-2,7,1,-1,2
1527709360487751,-1,2,0,-3,-12,-5,3,-1
1527709360494746,-3,-1,1,1,3,4,-4,2
1527709360494746,1,0,-2,-1,-3,-3,1,-2
1527709360510736,0,-3,-2,1,1,3,-5,0
1527709360510736,-1,2,-2,0,1,-1,-2,3
1527709360512735,1,-6,-5,-3,1,-5,0,1
1527709360512735,-5,-1,-1,0,1,-1,0,0
1527709360524728,1,5,1,-5,-20,-7,5,-1
1527709360524728,-3,-5,0,3,8,0,-2,0
1527709360533722,-1,0,0,-1,5,5,-6,-1
1527709360533722,3,5,1,-3,-10,-4,5,-1
1527709360547713,-2,-2,-3,-1,8,-3,-2,2
1527709360547713,1,1,0,-2,-6,1,0,0
1527709360554708,-1,-1,0,0,-6,-1,1,-1
1527709360554708,0,2,3,-1,6,-1,-1,-1
1527709360570699,0,-3,-2,0,0,0,-1,0
1527709360570699,-1,-2,-3,0,-1,0,-4,-1
1527709360572698,0,7,5,0,-7,-3,6,-3
1527709360572698,2,-9,-4,0,5,6,-7,0
1527709360593685,1,0,1,-1,3,3,-5,1
1527709360593685,1,0,-3,-5,-12,-1,6,-3
1527709360595683,-2,-1,-4,0,9,5,-3,0
1527709360595683,0,2,-1,-2,-2,0,3,-3
1527709360607676,0,-1,1,-1,-4,-4,2,-1
1527709360607676,0,-2,0,3,8,-1,-2,1
1527709360614672,0,-1,-2,0,-8,-5,-2,-2
1527709360614672,-1,-2,3,-1,3,0,-1,0
1527709360630660,3,7,2,1,-3,1,4,-5
1527709360630660,1,-2,-1,-1,1,-3,-3,4
1527709360632661,-3,-4,-1,-1,-1,3,-1,2
1527709360632661,-2,2,-1,1,-9,-5,1,-2
1527709360653647,-3,-4,-3,3,7,-1,-7,1
1527709360653647,-2,-2,0,0,-2,3,1,-3
1527709360655646,1,-1,0,-3,-6,-3,-2,-2
1527709360655646,0,-4,-4,-2,9,3,-3,0
1527709360667639,-1,-2,-4,-1,-7,-1,2,-1
1527709360667639,-2,1,1,-2,1,-2,-2,-1
1527709360674633,4,5,3,-1,7,0,4,-3
1527709360674633,-2,-7,-5,0,-5,0,-4,1
1527709360690623,-3,-4,-1,0,12,-2,-5,2
1527709360690623,2,8,-3,-1,6,-5,-5,-5
1527709360692623,-3,-5,7,1,-20,0,4,-1
1527709360692623,3,2,-4,3,6,2,2,1
1527709360713610,-3,0,1,-1,-29,0,0,2
1527709360713610,19,3,1,2,18,6,8,0
1527709360715608,-3,-5,1,-1,-2,-3,1,-2
1527709360715608,0,-3,5,2,7,1,5,1
1527709360727602,5,8,4,-3,8,7,8,-1
1527709360727602,-3,-3,-7,1,-22,2,18,8
1527709360734597,-3,-7,-4,0,1,8,-5,4
1527709360734597,-1,3,0,-5,-18,-5,0,-6
1527709360758582,-2,-3,-10,0,23,4,5,3
1527709360758582,-5,3,18,1,-13,2,-1,0
1527709360760582,0,4,-23,1,12,-10,-6,-1
1527709360760582,-4,-1,14,5,1,3,6,5
1527709360773573,3,-4,-9,-8,-5,-8,-12,-1
1527709360773573,-2,-2,7,0,16,3,-3,1
1527709360775578,6,10,4,3,-15,5,8,2
1527709360775578,-9,-12,-14,-7,-22,3,-27,-7
1527709360787567,7,-1,39,19,24,2,13,1
1527709360787567,-3,1,-36,-10,-24,-13,7,7
1527709360794560,-4,-1,-2,-8,31,-3,11,-11
1527709360794560,1,-2,11,8,1,1,11,10
1527709360811549,3,17,22,-5,-2,-6,-1,-8
1527709360811549,-6,-15,-1,4,-21,11,-12,4
1527709360812550,7,14,9,5,20,2,42,7
1527709360812550,-7,-10,-19,-6,-24,-5,-17,-7
1527709360833536,1,5,-22,-11,-11,5,37,3
1527709360833536,1,-3,3,18,3,-9,-1,-5
1527709360835536,-3,-11,22,-21,25,6,-19,-2
1527709360835536,17,34,6,25,11,-7,86,10
1527709360847531,-5,-3,6,-12,-8,4,-22,3
1527709360847531,5,8,3,-1,25,3,20,-4
1527709360856521,-5,-18,-14,2,-102,-25,-29,-2
1527709360856521,0,-5,-8,-9,39,22,-16,0
1527709360871512,2,1,-5,6,6,11,30,1
1527709360871512,-2,3,-3,0,-8,-8,-14,-11
1527709360872510,2,3,9,3,46,0,6,0
1527709360872510,1,5,7,-12,-32,-3,-53,6
1527709360893498,-21,-39,-49,-21,-83,-44,-50,-1
1527709360893498,-8,4,9,-4,-3,19,-11,-7
1527709360895497,5,-3,-4,7,19,13,5,12
1527709360895497,-2,1,10,5,5,7,-19,-5
1527709360907489,-2,-10,-14,-14,6,18,-4,2
1527709360907489,-3,1,14,5,16,8,-19,-1
1527709360916485,2,-6,-9,5,14,-14,-8,-7
1527709360916485,3,9,3,-9,10,-25,13,-6
1527709360931477,5,4,18,10,-10,-6,16,-2
1527709360931477,12,16,-1,4,56,-14,-4,1
1527709360932474,-46,-14,-39,1,-35,4,-14,-5
1527709360932474,-3,-7,0,1,44,0,-10,-10
1527709360953460,5,-46,-27,1,-11,0,-8,-4
1527709360953460,2,-29,13,-1,-23,16,7,9
1527709360955458,4,-6,9,-4,20,-9,-23,-3
1527709360955458,-2,21,-9,-9,11,7,-4,-6
1527709360967453,-5,46,22,7,16,13,1,3
1527709360967453,-5,2,-12,-17,-9,-8,-17,-11
1527709360976447,5,14,-14,22,23,3,-7,-7
1527709360976447,-3,6,33,-3,-1,-17,1,3
1527709360991437,1,4,-26,21,-25,20,-2,4
1527709360991437,4,19,36,-5,0,13,17,-14
1527709360992436,-1,-5,-13,-12,1,22,3,13
1527709360992436,4,-20,-18,-11,-9,-35,4,-5
1527709361013424,0,11,30,7,33,-24,-15,-6
1527709361013424,-1,-6,0,0,0,-29,16,17
1527709361015422,9,1,-5,-4,-30,1,-2,-1
1527709361015422,-37,-13,-6,6,-8,18,-5,-5
1527709361027417,-1,-2,-10,-4,15,19,5,1
1527709361027417,-14,-2,-16,-1,-7,1,-13,-3
1527709361036409,10,11,26,5,47,7,-9,8
1527709361036409,7,-5,-17,-7,-52,1,-20,-7
1527709361051399,1,2,-7,-7,64,-11,1,-6
1527709361051399,-3,-1,-5,4,-29,-4,-8,0
1527709361052399,-4,0,10,-12,-27,-5,3,-7
1527709361052399,4,-7,-11,5,19,15,3,1
1527709361073386,1,-1,4,6,-27,7,5,3
1527709361073386,3,-2,7,-5,-3,9,-1,8
1527709361075386,-3,-9,-13,-17,11,2,-9,-22
1527709361075386,6,5,11,16,2,9,17,1
1527709361087378,2,-9,7,2,-4,-8,16,2
1527709361087378,0,2,-26,5,-1,5,4,-8
1527709361096372,1,7,17,2,-3,-9,0,6
1527709361096372,1,-6,1,-3,-4,9,2,6
